adf,asdf,adsf,2022-07-07 03:04:08.212850381 UTC,asdfadsfsafda
time,val
599640909538802712,-54
599640909531110405,-40
599640909523418098,-36
599640909515725791,-43
599640909508033484,-45
599640909500341177,-45
599640909492648870,-38
599640909484956563,-29
599640909477264256,-24
599640909469571949,-27
599640909461879642,-27
599640909454187335,-24
599640909446495028,-18
599640909438802721,-18
599640909431110414,-27
599640909423418107,-29
599640909415725800,-11
599640909408033493,0
599640909400341186,-9
599640909392648879,-20
599640909384956572,-18
599640909377264265,-15
599640909369571958,-13
599640909361879651,-20
599640909354187344,-31
599640909346495037,-38
599640909338802730,-45
599640909331110423,-54
599640909323418116,-52
599640909315725809,-47
599640909308033502,-54
599640909300341195,-59
599640909292648888,-59
599640909284956581,-74
599640909277264274,-99
599640909269571967,-99
599640909261879660,-86
599640909254187353,-86
599640909246495046,-99
599640909238802739,-104
599640909231110432,-93
599640909223418125,-79
599640909215725818,-79
599640909208033511,-84
599640909200341204,-88
599640909192648897,-86
599640909184956590,-81
599640909177264283,-74
599640909169571976,-72
599640909161879669,-70
599640909154187362,-68
599640909146495055,-65
599640909138802748,-65
599640909131110441,-68
599640909123418134,-65
599640909115725827,-52
599640909108033520,-45
599640909100341213,-40
599640909092648906,-34
599640909084956599,-29
599640909077264292,-31
599640909069571985,-36
599640909061879678,-40
599640909054187371,-52
599640909046495064,-65
599640909038802757,-59
599640909031110450,-47
599640909023418143,-52
599640909015725836,-49
599640909008033529,-40
599640909000341222,-36
599640908992648915,-36
599640908984956608,-36
599640910100303394,22
599640910092611087,252
599640910084918780,737
599640910077226473,1503
599640910069534166,2211
599640910061841859,1848
599640910054149552,204
599640910046457245,-701
599640910038764938,-122
599640910031072631,20
599640910023380324,-426
599640910015688017,-338
599640910007995710,-161
599640910000303403,-272
599640909992611096,-279
599640909984918789,-186
599640909977226482,-190
599640909969534175,-202
599640909961841868,-161
599640909954149561,-145
599640909946457254,-138
599640909938764947,-111
599640909931072640,-84
599640909923380333,-72
599640909915688026,-54
599640909907995719,-34
599640909900303412,-13
599640909892611105,11
599640909884918798,36
599640909877226491,61
599640909869534184,90
599640909861841877,122
599640909854149570,154
599640909846457263,179
599640909838764956,197
599640909831072649,220
599640909823380342,249
599640909815688035,263
599640909807995728,252
599640909800303421,213
599640909792611114,140
599640909784918807,40
599640909777226500,-54
599640909769534193,-131
599640909761841886,-181
599640909754149579,-208
599640909746457272,-213
599640909738764965,-213
599640909731072658,-211
599640909723380351,-211
599640909715688044,-208
599640909707995737,-190
599640909700303430,-172
599640909692611123,-172
599640909684918816,-174
599640909677226509,-172
599640909669534202,-177
599640909661841895,-188
599640909654149588,-192
599640909646457281,-192
599640909638764974,-174
599640909631072667,-158
599640909623380360,-154
599640909615688053,-149
599640909607995746,-138
599640909600303439,-129
599640909592611132,-122
599640909584918825,-120
599640909577226518,-131
599640909569534211,-140
599640909561841904,-138
599640909554149597,-138
599640909546457290,-147
599640910661788816,-152
599640910654096509,-149
599640910646404202,-147
599640910638711895,-149
599640910631019588,-163
599640910623327281,-177
599640910615634974,-172
599640910607942667,-165
599640910600250360,-172
599640910592558053,-190
599640910584865746,-199
599640910577173439,-188
599640910569481132,-174
599640910561788825,-172
599640910554096518,-168
599640910546404211,-154
599640910538711904,-143
599640910531019597,-136
599640910523327290,-131
599640910515634983,-129
599640910507942676,-124
599640910500250369,-113
599640910492558062,-102
599640910484865755,-95
599640910477173448,-95
599640910469481141,-97
599640910461788834,-93
599640910454096527,-86
599640910446404220,-90
599640910438711913,-106
599640910431019606,-106
599640910423327299,-95
599640910415634992,-88
599640910407942685,-88
599640910400250378,-84
599640910392558071,-72
599640910384865764,-65
599640910377173457,-63
599640910369481150,-59
599640910361788843,-63
599640910354096536,-68
599640910346404229,-61
599640910338711922,-56
599640910331019615,-61
599640910323327308,-54
599640910315635001,-40
599640910307942694,-34
599640910300250387,-34
599640910292558080,-34
599640910284865773,-38
599640910277173466,-49
599640910269481159,-45
599640910261788852,-36
599640910254096545,-54
599640910246404238,-74
599640910238711931,-68
599640910231019624,-54
599640910223327317,-47
599640910215635010,-43
599640910207942703,-40
599640910200250396,-34
599640910192558089,-24
599640910184865782,-22
599640910177173475,-24
599640910169481168,-22
599640910161788861,-11
599640910154096554,-9
599640910146404247,-11
599640910138711940,-9
599640910131019633,-2
599640910123327326,0
599640910115635019,0
599640910107942712,-9
599640911223274240,-20
599640911215581933,-15
599640911207889626,-6
599640911200197319,-4
599640911192505012,-20
599640911184812705,-47
599640911177120398,-45
599640911169428091,-15
599640911161735784,11
599640911154043477,6
599640911146351170,-36
599640911138658863,-49
599640911130966556,-24
599640911123274249,-29
599640911115581942,-54
599640911107889635,-52
599640911100197328,-38
599640911092505021,-36
599640911084812714,-36
599640911077120407,-27
599640911069428100,-24
599640911061735793,-24
599640911054043486,-15
599640911046351179,-27
599640911038658872,-59
599640911030966565,-52
599640911023274258,93
599640911015581951,442
599640911007889644,1035
599640911000197337,1807
599640910992505030,2138
599640910984812723,1042
599640910977120416,-517
599640910969428109,-526
599640910961735802,65
599640910954043495,-181
599640910946351188,-376
599640910938658881,-170
599640910930966574,-170
599640910923274267,-256
599640910915581960,-183
599640910907889653,-152
599640910900197346,-188
599640910892505039,-161
599640910884812732,-122
599640910877120425,-120
599640910869428118,-102
599640910861735811,-74
599640910854043504,-68
599640910846351197,-68
599640910838658890,-45
599640910830966583,-13
599640910823274276,11
599640910815581969,24
599640910807889662,40
599640910800197355,77
599640910792505048,118
599640910784812741,149
599640910777120434,192
599640910769428127,245
599640910761735820,281
599640910754043513,306
599640910746351206,329
599640910738658899,324
599640910730966592,286
599640910723274285,222
599640910715581978,113
599640910707889671,-9
599640910700197364,-95
599640910692505057,-152
599640910684812750,-204
599640910677120443,-229
599640910669428136,-240
599640911784774922,-254
599640911777082615,-247
599640911769390308,-231
599640911761698001,-220
599640911754005694,-202
599640911746313387,-199
599640911738621080,-197
599640911730928773,-170
599640911723236466,-149
599640911715544159,-165
599640911707851852,-179
599640911700159545,-161
599640911692467238,-138
599640911684774931,-133
599640911677082624,-133
599640911669390317,-120
599640911661698010,-104
599640911654005703,-97
599640911646313396,-95
599640911638621089,-102
599640911630928782,-108
599640911623236475,-95
599640911615544168,-93
599640911607851861,-122
599640911600159554,-154
599640911592467247,-152
599640911584774940,-127
599640911577082633,-120
599640911569390326,-131
599640911561698019,-131
599640911554005712,-118
599640911546313405,-106
599640911538621098,-102
599640911530928791,-99
599640911523236484,-106
599640911515544177,-113
599640911507851870,-97
599640911500159563,-84
599640911492467256,-86
599640911484774949,-84
599640911477082642,-81
599640911469390335,-79
599640911461698028,-77
599640911454005721,-97
599640911446313414,-120
599640911438621107,-113
599640911430928800,-106
599640911423236493,-108
599640911415544186,-99
599640911407851879,-90
599640911400159572,-88
599640911392467265,-86
599640911384774958,-79
599640911377082651,-81
599640911369390344,-86
599640911361698037,-79
599640911354005730,-84
599640911346313423,-106
599640911338621116,-102
599640911330928809,-77
599640911323236502,-79
599640911315544195,-77
599640911307851888,-31
599640911300159581,-18
599640911292467274,-59
599640911284774967,-81
599640911277082660,-93
599640911269390353,-104
599640911261698046,-99
599640911254005739,-77
599640911246313432,-54
599640911238621125,-70
599640911230928818,-102
599640912346275604,-106
599640912338583297,-79
599640912330890990,-43
599640912323198683,-56
599640912315506376,-106
599640912307814069,-79
599640912300121762,124
599640912292429455,497
599640912284737148,1035
599640912277044841,1709
599640912269352534,1809
599640912261660227,540
599640912253967920,-694
599640912246275613,-349
599640912238583306,106
599640912230890999,-233
599640912223198692,-315
599640912215506385,-129
599640912207814078,-179
599640912200121771,-233
599640912192429464,-174
599640912184737157,-152
599640912177044850,-156
599640912169352543,-124
599640912161660236,-104
599640912153967929,-104
599640912146275622,-86
599640912138583315,-61
599640912130891008,-61
599640912123198701,-52
599640912115506394,-9
599640912107814087,22
599640912100121780,29
599640912092429473,59
599640912084737166,113
599640912077044859,145
599640912069352552,168
599640912061660245,204
599640912053967938,240
599640912046275631,277
599640912038583324,317
599640912030891017,329
599640912023198710,315
599640912015506403,306
599640912007814096,265
599640912000121789,133
599640911992429482,-31
599640911984737175,-131
599640911977044868,-179
599640911969352561,-215
599640911961660254,-240
599640911953967947,-261
599640911946275640,-277
599640911938583333,-283
599640911930891026,-236
599640911923198719,-179
599640911915506412,-197
599640911907814105,-231
599640911900121798,-213
599640911892429491,-188
599640911884737184,-192
599640911877044877,-190
599640911869352570,-154
599640911861660263,-154
599640911853967956,-197
599640911846275649,-179
599640911838583342,-127
599640911830891035,-129
599640911823198728,-136
599640911815506421,-111
599640911807814114,-93
599640911800121807,-93
599640911792429500,-90
599640912907776286,-93
599640912900083979,-93
599640912892391672,-90
599640912884699365,-93
599640912877007058,-108
599640912869314751,-118
599640912861622444,-115
599640912853930137,-106
599640912846237830,-106
599640912838545523,-120
599640912830853216,-140
599640912823160909,-145
599640912815468602,-131
599640912807776295,-127
599640912800083988,-140
599640912792391681,-158
599640912784699374,-154
599640912777007067,-138
599640912769314760,-127
599640912761622453,-127
599640912753930146,-136
599640912746237839,-145
599640912738545532,-131
599640912730853225,-115
599640912723160918,-111
599640912715468611,-108
599640912707776304,-104
599640912700083997,-99
599640912692391690,-93
599640912684699383,-84
599640912677007076,-84
599640912669314769,-81
599640912661622462,-77
599640912653930155,-77
599640912646237848,-72
599640912638545541,-52
599640912630853234,-27
599640912623160927,-31
599640912615468620,-56
599640912607776313,-74
599640912600084006,-86
599640912592391699,-90
599640912584699392,-86
599640912577007085,-79
599640912569314778,-79
599640912561622471,-81
599640912553930164,-74
599640912546237857,-63
599640912538545550,-59
599640912530853243,-59
599640912523160936,-54
599640912515468629,-52
599640912507776322,-36
599640912500084015,84
599640912492391708,413
599640912484699401,999
599640912477007094,1759
599640912469314787,2066
599640912461622480,992
599640912453930173,-517
599640912446237866,-519
599640912438545559,65
599640912430853252,-174
599640912423160945,-379
599640912415468638,-177
599640912407776331,-165
599640912400084024,-242
599640912392391717,-177
599640912384699410,-145
599640912377007103,-174
599640912369314796,-145
599640912361622489,-104
599640912353930182,-99
599640913469256622,-90
599640913461564315,-68
599640913453872008,-49
599640913446179701,-31
599640913438487394,-15
599640913430795087,-9
599640913423102780,6
599640913415410473,34
599640913407718166,56
599640913400025859,74
599640913392333552,74
599640913384641245,81
599640913376948938,129
599640913369256631,174
599640913361564324,188
599640913353872017,215
599640913346179710,247
599640913338487403,238
599640913330795096,179
599640913323102789,70
599640913315410482,-65
599640913307718175,-174
599640913300025868,-245
599640913292333561,-292
599640913284641254,-324
599640913276948947,-336
599640913269256640,-331
599640913261564333,-329
599640913253872026,-340
599640913246179719,-338
599640913238487412,-315
599640913230795105,-299
599640913223102798,-299
599640913215410491,-286
599640913207718184,-281
599640913200025877,-290
599640913192333570,-274
599640913184641263,-249
599640913176948956,-242
599640913169256649,-236
599640913161564342,-215
599640913153872035,-199
599640913146179728,-186
599640913138487421,-179
599640913130795114,-174
599640913123102807,-165
599640913115410500,-156
599640913107718193,-145
599640913100025886,-138
599640913092333579,-140
599640913084641272,-140
599640913076948965,-131
599640913069256658,-124
599640913061564351,-143
599640913053872044,-165
599640913046179737,-168
599640913038487430,-161
599640913030795123,-154
599640913023102816,-145
599640913015410509,-140
599640913007718202,-138
599640913000025895,-133
599640912992333588,-136
599640912984641281,-138
599640912976948974,-138
599640912969256667,-131
599640912961564360,-115
599640912953872053,-102
599640912946179746,-97
599640912938487439,-77
599640912930795132,-52
599640912923102825,-59
599640912915410518,-81
599640914030731872,-79
599640914023039565,-72
599640914015347258,-70
599640914007654951,-68
599640913999962644,-63
599640913992270337,-61
599640913984578030,-68
599640913976885723,-84
599640913969193416,-74
599640913961501109,-72
599640913953808802,-65
599640913946116495,104
599640913938424188,558
599640913930731881,1276
599640913923039574,2023
599640913915347267,1911
599640913907654960,356
599640913899962653,-826
599640913892270346,-306
599640913884578039,52
599640913876885732,-372
599640913869193425,-363
599640913861501118,-154
599640913853808811,-238
599640913846116504,-267
599640913838424197,-181
599640913830731890,-179
599640913823039583,-188
599640913815347276,-147
599640913807654969,-138
599640913799962662,-156
599640913792270355,-136
599640913784578048,-97
599640913776885741,-79
599640913769193434,-63
599640913761501127,-38
599640913753808820,-13
599640913746116513,11
599640913738424206,43
599640913730731899,77
599640913723039592,113
599640913715347285,156
599640913707654978,206
599640913699962671,242
599640913692270364,274
599640913684578057,304
599640913676885750,324
599640913669193443,317
599640913661501136,272
599640913653808829,179
599640913646116522,47
599640913638424215,-72
599640913630731908,-152
599640913623039601,-213
599640913615347294,-274
599640913607654987,-304
599640913599962680,-288
599640913592270373,-274
599640913584578066,-270
599640913576885759,-258
599640913569193452,-245
599640913561501145,-236
599640913553808838,-224
599640913546116531,-211
599640913538424224,-204
599640913530731917,-190
599640913523039610,-179
599640913515347303,-172
599640913507654996,-163
599640913499962689,-149
599640913492270382,-138
599640913484578075,-138
599640913476885768,-149
599640914592247814,-165
599640914584555507,-174
599640914576863200,-163
599640914569170893,-145
599640914561478586,-143
599640914553786279,-145
599640914546093972,-140
599640914538401665,-129
599640914530709358,-127
599640914523017051,-138
599640914515324744,-165
599640914507632437,-181
599640914499940130,-170
599640914492247823,-156
599640914484555516,-152
599640914476863209,-147
599640914469170902,-138
599640914461478595,-133
599640914453786288,-127
599640914446093981,-118
599640914438401674,-113
599640914430709367,-108
599640914423017060,-102
599640914415324753,-99
599640914407632446,-108
599640914399940139,-124
599640914392247832,-131
599640914384555525,-124
599640914376863218,-115
599640914369170911,-113
599640914361478604,-111
599640914353786297,-102
599640914346093990,-77
599640914338401683,-54
599640914330709376,-61
599640914323017069,-84
599640914315324762,-86
599640914307632455,-74
599640914299940148,-70
599640914292247841,-70
599640914284555534,-70
599640914276863227,-72
599640914269170920,-77
599640914261478613,-72
599640914253786306,-72
599640914246093999,-84
599640914238401692,-59
599640914230709385,111
599640914223017078,492
599640914215324771,1108
599640914207632464,1859
599640914199940157,2052
599640914192247850,765
599640914184555543,-731
599640914176863236,-508
599640914169170929,63
599640914161478622,-277
599640914153786315,-413
599640914146094008,-183
599640914138401701,-222
599640914130709394,-297
599640914123017087,-211
599640914115324780,-179
599640914107632473,-204
599640914099940166,-186
599640914092247859,-163
599640914084555552,-152
599640914076863245,-129
599640914069170938,-106
599640914061478631,-95
599640914053786324,-74
599640914046094017,-47
599640914038401710,-24
599640915153717978,-4
599640915146025671,20
599640915138333364,54
599640915130641057,90
599640915122948750,129
599640915115256443,154
599640915107564136,172
599640915099871829,208
599640915092179522,252
599640915084487215,272
599640915076794908,254
599640915069102601,204
599640915061410294,133
599640915053717987,40
599640915046025680,-70
599640915038333373,-163
599640915030641066,-222
599640915022948759,-258
599640915015256452,-274
599640915007564145,-286
599640914999871838,-299
599640914992179531,-301
599640914984487224,-279
599640914976794917,-263
599640914969102610,-254
599640914961410303,-240
599640914953717996,-222
599640914946025689,-204
599640914938333382,-192
599640914930641075,-186
599640914922948768,-174
599640914915256461,-163
599640914907564154,-156
599640914899871847,-149
599640914892179540,-140
599640914884487233,-131
599640914876794926,-122
599640914869102619,-113
599640914861410312,-104
599640914853718005,-102
599640914846025698,-102
599640914838333391,-104
599640914830641084,-102
599640914822948777,-99
599640914815256470,-113
599640914807564163,-136
599640914799871856,-131
599640914792179549,-118
599640914784487242,-118
599640914776794935,-118
599640914769102628,-111
599640914761410321,-102
599640914753718014,-97
599640914746025707,-95
599640914738333400,-93
599640914730641093,-88
599640914722948786,-86
599640914715256479,-93
599640914707564172,-102
599640914699871865,-99
599640914692179558,-90
599640914684487251,-84
599640914676794944,-77
599640914669102637,-72
599640914661410330,-77
599640914653718023,-86
599640914646025716,-79
599640914638333409,-68
599640914630641102,-74
599640914622948795,-97
599640914615256488,-102
599640914607564181,-90
599640914599871874,-81
599640915715218660,-81
599640915707526353,-77
599640915699834046,-68
599640915692141739,-61
599640915684449432,-61
599640915676757125,-72
599640915669064818,-90
599640915661372511,-88
599640915653680204,-72
599640915645987897,-72
599640915638295590,-81
599640915630603283,-79
599640915622910976,-70
599640915615218669,-63
599640915607526362,-65
599640915599834055,-84
599640915592141748,-106
599640915584449441,-97
599640915576757134,-79
599640915569064827,-79
599640915561372520,-81
599640915553680213,-74
599640915545987906,-72
599640915538295599,-74
599640915530603292,-79
599640915522910985,-84
599640915515218678,-84
599640915507526371,-88
599640915499834064,-93
599640915492141757,-88
599640915484449450,-86
599640915476757143,-86
599640915469064836,-81
599640915461372529,-74
599640915453680222,-74
599640915445987915,-79
599640915438295608,-79
599640915430603301,-74
599640915422910994,-72
599640915415218687,-77
599640915407526380,-88
599640915399834073,-63
599640915392141766,-29
599640915384449459,-40
599640915376757152,-56
599640915369064845,-49
599640915361372538,-56
599640915353680231,-65
599640915345987924,-54
599640915338295617,-54
599640915330603310,-70
599640915322911003,-68
599640915315218696,-59
599640915307526389,-52
599640915299834082,-45
599640915292141775,-43
599640915284449468,-47
599640915276757161,-43
599640915269064854,29
599640915261372547,272
599640915253680240,746
599640915245987933,1482
599640915238295626,2188
599640915230603319,1861
599640915222911012,211
599640915215218705,-753
599640915207526398,-143
599640915199834091,84
599640915192141784,-345
599640915184449477,-295
599640915176757170,-133
599640915169064863,-227
599640915161372556,-227
599640916276719342,-145
599640916269027035,-149
599640916261334728,-154
599640916253642421,-113
599640916245950114,-93
599640916238257807,-97
599640916230565500,-99
599640916222873193,-84
599640916215180886,-56
599640916207488579,-36
599640916199796272,-20
599640916192103965,0
599640916184411658,24
599640916176719351,49
599640916169027044,70
599640916161334737,74
599640916153642430,86
599640916145950123,127
599640916138257816,177
599640916130565509,213
599640916122873202,236
599640916115180895,254
599640916107488588,267
599640916099796281,267
599640916092103974,229
599640916084411667,147
599640916076719360,38
599640916069027053,-59
599640916061334746,-124
599640916053642439,-170
599640916045950132,-202
599640916038257825,-215
599640916030565518,-215
599640916022873211,-211
599640916015180904,-213
599640916007488597,-222
599640915999796290,-222
599640915992103983,-197
599640915984411676,-181
599640915976719369,-179
599640915969027062,-170
599640915961334755,-152
599640915953642448,-147
599640915945950141,-152
599640915938257834,-147
599640915930565527,-136
599640915922873220,-129
599640915915180913,-124
599640915907488606,-115
599640915899796299,-106
599640915892103992,-108
599640915884411685,-108
599640915876719378,-99
599640915869027071,-95
599640915861334764,-99
599640915853642457,-111
599640915845950150,-122
599640915838257843,-113
599640915830565536,-97
599640915822873229,-118
599640915815180922,-154
599640915807488615,-143
599640915799796308,-124
599640915792104001,-131
599640915784411694,-131
599640915776719387,-120
599640915769027080,-113
599640915761334773,-106
599640915753642466,-102
599640915745950159,-102
599640915738257852,-99
599640915730565545,-93
599640915722873238,-93
599640916838199678,-97
599640916830507371,-102
599640916822815064,-104
599640916815122757,-99
599640916807430450,-93
599640916799738143,-97
599640916792045836,-102
599640916784353529,-102
599640916776661222,-99
599640916768968915,-93
599640916761276608,-106
599640916753584301,-149
599640916745891994,-172
599640916738199687,-145
599640916730507380,-133
599640916722815073,-140
599640916715122766,-133
599640916707430459,-120
599640916699738152,-113
599640916692045845,-106
599640916684353538,-102
599640916676661231,-99
599640916668968924,-93
599640916661276617,-86
599640916653584310,-81
599640916645892003,-84
599640916638199696,-81
599640916630507389,-68
599640916622815082,-40
599640916615122775,-11
599640916607430468,-9
599640916599738161,-34
599640916592045854,-34
599640916584353547,-22
599640916576661240,-36
599640916568968933,-49
599640916561276626,-54
599640916553584319,-59
599640916545892012,-63
599640916538199705,-68
599640916530507398,-81
599640916522815091,-86
599640916515122784,-72
599640916507430477,-61
599640916499738170,-65
599640916492045863,-68
599640916484353556,-31
599640916476661249,143
599640916468968942,533
599640916461276635,1162
599640916453584328,1936
599640916445892021,2156
599640916438199714,892
599640916430507407,-619
599640916422815100,-449
599640916415122793,97
599640916407430486,-245
599640916399738179,-379
599640916392045872,-147
599640916384353565,-181
599640916376661258,-254
599640916368968951,-168
599640916361276644,-136
599640916353584337,-156
599640916345892030,-124
599640916338199723,-95
599640916330507416,-88
599640916322815109,-65
599640916315122802,-43
599640916307430495,-31
599640916299738188,-22
599640916292045881,2
599640916284353574,31
599640917399690188,52
599640917391997881,72
599640917384305574,99
599640917376613267,133
599640917368920960,168
599640917361228653,204
599640917353536346,224
599640917345844039,240
599640917338151732,272
599640917330459425,306
599640917322767118,308
599640917315074811,277
599640917307382504,217
599640917299690197,136
599640917291997890,22
599640917284305583,-95
599640917276613276,-174
599640917268920969,-220
599640917261228662,-249
599640917253536355,-267
599640917245844048,-267
599640917238151741,-263
599640917230459434,-252
599640917222767127,-233
599640917215074820,-220
599640917207382513,-215
599640917199690206,-206
599640917191997899,-190
599640917184305592,-190
599640917176613285,-204
599640917168920978,-217
599640917161228671,-229
599640917153536364,-222
599640917145844057,-204
599640917138151750,-190
599640917130459443,-183
599640917122767136,-179
599640917115074829,-170
599640917107382522,-161
599640917099690215,-154
599640917091997908,-149
599640917084305601,-143
599640917076613294,-140
599640917068920987,-143
599640917061228680,-147
599640917053536373,-138
599640917045844066,-124
599640917038151759,-120
599640917030459452,-124
599640917022767145,-138
599640917015074838,-158
599640917007382531,-158
599640916999690224,-138
599640916991997917,-129
599640916984305610,-129
599640916976613303,-124
599640916968920996,-115
599640916961228689,-104
599640916953536382,-97
599640916945844075,-93
599640916938151768,-90
599640916930459461,-93
599640916922767154,-88
599640916915074847,-79
599640916907382540,-74
599640916899690233,-70
599640916891997926,-65
599640916884305619,-63
599640916876613312,-59
599640916868921005,-56
599640916861228698,-56
599640916853536391,-49
599640916845844084,-43
599640917961190870,-49
599640917953498563,-70
599640917945806256,-79
599640917938113949,-68
599640917930421642,-59
599640917922729335,-65
599640917915037028,-81
599640917907344721,-90
599640917899652414,-81
599640917891960107,-68
599640917884267800,-65
599640917876575493,-68
599640917868883186,-72
599640917861190879,-68
599640917853498572,-59
599640917845806265,-47
599640917838113958,-38
599640917830421651,-20
599640917822729344,4
599640917815037037,0
599640917807344730,-24
599640917799652423,-34
599640917791960116,-45
599640917784267809,-59
599640917776575502,-59
599640917768883195,-63
599640917761190888,-84
599640917753498581,-79
599640917745806274,-59
599640917738113967,-65
599640917730421660,-72
599640917722729353,-56
599640917715037046,-45
599640917707344739,-40
599640917699652432,-36
599640917691960125,13
599640917684267818,227
599640917676575511,672
599640917668883204,1375
599640917661190897,2141
599640917653498590,2043
599640917645806283,481
599640917638113976,-737
599640917630421669,-231
599640917622729362,152
599640917615037055,-281
599640917607344748,-295
599640917599652441,-86
599640917591960134,-172
599640917584267827,-222
599640917576575520,-152
599640917568883213,-165
599640917561190906,-188
599640917553498599,-147
599640917545806292,-118
599640917538113985,-113
599640917530421678,-97
599640917522729371,-70
599640917515037064,-45
599640917507344757,-27
599640917499652450,-11
599640917491960143,11
599640917484267836,34
599640917476575529,68
599640917468883222,104
599640917461190915,124
599640917453498608,145
599640917445806301,190
599640917438113994,233
599640917430421687,240
599640917422729380,240
599640917415037073,267
599640917407344766,281
599640918522691552,256
599640918514999245,197
599640918507306938,104
599640918499614631,-11
599640918491922324,-122
599640918484230017,-211
599640918476537710,-277
599640918468845403,-317
599640918461153096,-315
599640918453460789,-301
599640918445768482,-315
599640918438076175,-320
599640918430383868,-292
599640918422691561,-267
599640918414999254,-267
599640918407306947,-267
599640918399614640,-254
599640918391922333,-240
599640918384230026,-227
599640918376537719,-204
599640918368845412,-188
599640918361153105,-197
599640918353460798,-195
599640918345768491,-168
599640918338076184,-149
599640918330383877,-156
599640918322691570,-158
599640918314999263,-156
599640918307306956,-152
599640918299614649,-140
599640918291922342,-131
599640918284230035,-133
599640918276537728,-131
599640918268845421,-120
599640918261153114,-115
599640918253460807,-120
599640918245768500,-122
599640918238076193,-111
599640918230383886,-95
599640918222691579,-90
599640918214999272,-90
599640918207306965,-95
599640918199614658,-99
599640918191922351,-99
599640918184230044,-95
599640918176537737,-106
599640918168845430,-120
599640918161153123,-106
599640918153460816,-90
599640918145768509,-95
599640918138076202,-93
599640918130383895,-79
599640918122691588,-72
599640918114999281,-70
599640918107306974,-72
599640918099614667,-65
599640918091922360,-54
599640918084230053,-49
599640918076537746,-52
599640918068845439,-47
599640918061153132,-45
599640918053460825,-54
599640918045768518,-45
599640918038076211,-27
599640918030383904,-34
599640918022691597,-47
599640918014999290,-18
599640918007306983,27
599640917999614676,22
599640917991922369,-20
599640917984230062,-43
599640917976537755,-47
599640917968845448,-52
599640919084161716,-45
599640919076469409,-45
599640919068777102,-54
599640919061084795,-49
599640919053392488,-40
599640919045700181,-34
599640919038007874,-43
599640919030315567,-56
599640919022623260,-47
599640919014930953,-38
599640919007238646,-36
599640918999546339,68
599640918991854032,370
599640918984161725,876
599640918976469418,1555
599640918968777111,1995
599640918961084804,1192
599640918953392497,-406
599640918945700190,-690
599640918938007883,9
599640918930315576,-72
599640918922623269,-379
599640918914930962,-202
599640918907238655,-133
599640918899546348,-231
599640918891854041,-177
599640918884161734,-113
599640918876469427,-138
599640918868777120,-124
599640918861084813,-77
599640918853392506,-70
599640918845700199,-70
599640918838007892,-38
599640918830315585,-11
599640918822623278,-6
599640918814930971,4
599640918807238664,36
599640918799546357,65
599640918791854050,90
599640918784161743,118
599640918776469436,131
599640918768777129,147
599640918761084822,192
599640918753392515,252
599640918745700208,297
599640918738007901,329
599640918730315594,356
599640918722623287,372
599640918714930980,365
599640918707238673,311
599640918699546366,202
599640918691854059,63
599640918684161752,-56
599640918676469445,-145
599640918668777138,-206
599640918661084831,-240
599640918653392524,-254
599640918645700217,-258
599640918638007910,-252
599640918630315603,-238
599640918622623296,-224
599640918614930989,-220
599640918607238682,-217
599640918599546375,-213
599640918591854068,-202
599640918584161761,-181
599640918576469454,-179
599640918568777147,-179
599640918561084840,-154
599640918553392533,-147
599640918545700226,-172
599640918538007919,-177
599640918530315612,-154
599640919645662398,-156
599640919637970091,-163
599640919630277784,-156
599640919622585477,-163
599640919614893170,-165
599640919607200863,-156
599640919599508556,-174
599640919591816249,-204
599640919584123942,-208
599640919576431635,-197
599640919568739328,-197
599640919561047021,-211
599640919553354714,-222
599640919545662407,-222
599640919537970100,-208
599640919530277793,-197
599640919522585486,-190
599640919514893179,-183
599640919507200872,-172
599640919499508565,-163
599640919491816258,-156
599640919484123951,-149
599640919476431644,-147
599640919468739337,-138
599640919461047030,-129
599640919453354723,-133
599640919445662416,-138
599640919437970109,-129
599640919430277802,-118
599640919422585495,-113
599640919414893188,-113
599640919407200881,-115
599640919399508574,-108
599640919391816267,-95
599640919384123960,-86
599640919376431653,-79
599640919368739346,-70
599640919361047039,-81
599640919353354732,-95
599640919345662425,-81
599640919337970118,-77
599640919330277811,-90
599640919322585504,-84
599640919314893197,-74
599640919307200890,-72
599640919299508583,-74
599640919291816276,-81
599640919284123969,-65
599640919276431662,-45
599640919268739355,-45
599640919261047048,-47
599640919253354741,-45
599640919245662434,-11
599640919237970127,149
599640919230277820,490
599640919222585513,1008
599640919214893206,1641
599640919207200899,1800
599640919199508592,697
599640919191816285,-583
599640919184123978,-422
599640919176431671,70
599640919168739364,-190
599640919161047057,-306
599640919153354750,-120
599640919145662443,-147
599640919137970136,-220
599640919130277829,-156
599640919122585522,-115
599640919114893215,-127
599640919107200908,-113
599640919099508601,-86
599640919091816294,-68
599640920207163080,-47
599640920199470773,-22
599640920191778466,-9
599640920184086159,6
599640920176393852,31
599640920168701545,56
599640920161009238,79
599640920153316931,104
599640920145624624,122
599640920137932317,156
599640920130240010,213
599640920122547703,240
599640920114855396,227
599640920107163089,252
599640920099470782,306
599640920091778475,317
599640920084086168,306
599640920076393861,288
599640920068701554,217
599640920061009247,99
599640920053316940,-24
599640920045624633,-131
599640920037932326,-206
599640920030240019,-245
599640920022547712,-256
599640920014855405,-270
599640920007163098,-277
599640919999470791,-263
599640919991778484,-245
599640919984086177,-227
599640919976393870,-224
599640919968701563,-252
599640919961009256,-263
599640919953316949,-224
599640919945624642,-197
599640919937932335,-202
599640919930240028,-188
599640919922547721,-163
599640919914855414,-156
599640919907163107,-145
599640919899470800,-129
599640919891778493,-124
599640919884086186,-115
599640919876393879,-95
599640919868701572,-95
599640919861009265,-102
599640919853316958,-95
599640919845624651,-95
599640919837932344,-108
599640919830240037,-115
599640919822547730,-115
599640919814855423,-122
599640919807163116,-122
599640919799470809,-108
599640919791778502,-115
599640919784086195,-143
599640919776393888,-168
599640919768701581,-163
599640919761009274,-147
599640919753316967,-149
599640919745624660,-145
599640919737932353,-118
599640919730240046,-97
599640919722547739,-111
599640919714855432,-124
599640919707163125,-115
599640919699470818,-113
599640919691778511,-122
599640919684086204,-127
599640919676393897,-127
599640919668701590,-124
599640919661009283,-120
599640919653316976,-111
599640920768663762,-104
599640920760971455,-106
599640920753279148,-77
599640920745586841,111
599640920737894534,508
599640920730202227,1101
599640920722509920,1755
599640920714817613,1714
599640920707125306,379
599640920699432999,-733
599640920691740692,-313
599640920684048385,49
599640920676356078,-354
599640920668663771,-404
599640920660971464,-190
599640920653279157,-242
599640920645586850,-286
599640920637894543,-197
599640920630202236,-181
599640920622509929,-199
599640920614817622,-165
599640920607125315,-138
599640920599433008,-129
599640920591740701,-102
599640920584048394,-77
599640920576356087,-59
599640920568663780,-45
599640920560971473,-24
599640920553279166,2
599640920545586859,34
599640920537894552,63
599640920530202245,74
599640920522509938,86
599640920514817631,136
599640920507125324,197
599640920499433017,236
599640920491740710,263
599640920484048403,290
599640920476356096,308
599640920468663789,292
599640920460971482,233
599640920453279175,127
599640920445586868,-2
599640920437894561,-115
599640920430202254,-188
599640920422509947,-238
599640920414817640,-267
599640920407125333,-274
599640920399433026,-267
599640920391740719,-265
599640920384048412,-272
599640920376356105,-283
599640920368663798,-288
599640920360971491,-272
599640920353279184,-254
599640920345586877,-249
599640920337894570,-242
599640920330202263,-217
599640920322509956,-192
599640920314817649,-181
599640920307125342,-179
599640920299433035,-170
599640920291740728,-152
599640920284048421,-131
599640920276356114,-120
599640920268663807,-115
599640920260971500,-111
599640920253279193,-106
599640920245586886,-99
599640920237894579,-95
599640920230202272,-95
599640920222509965,-99
599640920214817658,-102
599640921330164444,-102
599640921322472137,-104
599640921314779830,-122
599640921307087523,-138
599640921299395216,-124
599640921291702909,-111
599640921284010602,-122
599640921276318295,-143
599640921268625988,-143
599640921260933681,-127
599640921253241374,-122
599640921245549067,-131
599640921237856760,-131
599640921230164453,-115
599640921222472146,-97
599640921214779839,-88
599640921207087532,-68
599640921199395225,-47
599640921191702918,-56
599640921184010611,-70
599640921176318304,-63
599640921168625997,-56
599640921160933690,-65
599640921153241383,-65
599640921145549076,-59
599640921137856769,-56
599640921130164462,-68
599640921122472155,-84
599640921114779848,-84
599640921107087541,-77
599640921099395234,-77
599640921091702927,20
599640921084010620,347
599640921076318313,942
599640921068626006,1736
599640921060933699,2145
599640921053241392,1169
599640921045549085,-413
599640921037856778,-551
599640921030164471,56
599640921022472164,-136
599640921014779857,-381
599640921007087550,-190
599640920999395243,-158
599640920991702936,-254
599640920984010629,-222
599640920976318322,-206
599640920968626015,-227
599640920960933708,-192
599640920953241401,-156
599640920945549094,-152
599640920937856787,-138
599640920930164480,-111
599640920922472173,-90
599640920914779866,-79
599640920907087559,-65
599640920899395252,-49
599640920891702945,-31
599640920884010638,-9
599640920876318331,22
599640920868626024,52
599640920860933717,81
599640920853241410,113
599640920845549103,152
599640920837856796,195
599640920830164489,222
599640920822472182,231
599640920814779875,236
599640920807087568,220
599640920799395261,147
599640920791702954,24
599640920784010647,-102
599640920776318340,-186
599640921891634608,-231
599640921883942301,-270
599640921876249994,-308
599640921868557687,-324
599640921860865380,-311
599640921853173073,-295
599640921845480766,-286
599640921837788459,-274
599640921830096152,-256
599640921822403845,-238
599640921814711538,-224
599640921807019231,-224
599640921799326924,-236
599640921791634617,-231
599640921783942310,-204
599640921776250003,-186
599640921768557696,-181
599640921760865389,-177
599640921753173082,-163
599640921745480775,-152
599640921737788468,-147
599640921730096161,-158
599640921722403854,-181
599640921714711547,-177
599640921707019240,-154
599640921699326933,-147
599640921691634626,-147
599640921683942319,-143
599640921676250012,-136
599640921668557705,-131
599640921660865398,-122
599640921653173091,-115
599640921645480784,-115
599640921637788477,-108
599640921630096170,-99
599640921622403863,-95
599640921614711556,-90
599640921607019249,-95
599640921599326942,-104
599640921591634635,-99
599640921583942328,-88
599640921576250021,-90
599640921568557714,-90
599640921560865407,-79
599640921553173100,-68
599640921545480793,-70
599640921537788486,-86
599640921530096179,-97
599640921522403872,-84
599640921514711565,-65
599640921507019258,-65
599640921499326951,-63
599640921491634644,-61
599640921483942337,-68
599640921476250030,-65
599640921468557723,-56
599640921460865416,-49
599640921453173109,-45
599640921445480802,-40
599640921437788495,-36
599640921430096188,-34
599640921422403881,-29
599640921414711574,-22
599640921407019267,-15
599640921399326960,-15
599640921391634653,-34
599640921383942346,-52
599640921376250039,-45
599640921368557732,-29
599640921360865425,-24
599640921353173118,-27
599640921345480811,-27
599640921337788504,-22
599640922453165806,-13
599640922445473499,-9
599640922437781192,-6
599640922430088885,-6
599640922422396578,-4
599640922414704271,2
599640922407011964,2
599640922399319657,-15
599640922391627350,-34
599640922383935043,-24
599640922376242736,-13
599640922368550429,-15
599640922360858122,-18
599640922353165815,-15
599640922345473508,-11
599640922337781201,-15
599640922330088894,-29
599640922322396587,-52
599640922314704280,-70
599640922307011973,-65
599640922299319666,-54
599640922291627359,-49
599640922283935052,-38
599640922276242745,-15
599640922268550438,11
599640922260858131,9
599640922253165824,-13
599640922245473517,-18
599640922237781210,-11
599640922230088903,-13
599640922222396596,-29
599640922214704289,-45
599640922207011982,-49
599640922199319675,-49
599640922191627368,-47
599640922183935061,-43
599640922176242754,-45
599640922168550447,-24
599640922160858140,136
599640922153165833,551
599640922145473526,1285
599640922137781219,2125
599640922130088912,2188
599640922122396605,726
599640922114704298,-690
599640922107011991,-374
599640922099319684,84
599640922091627377,-304
599640922083935070,-376
599640922076242763,-152
599640922068550456,-208
599640922060858149,-267
599640922053165842,-179
599640922045473535,-152
599640922037781228,-165
599640922030088921,-131
599640922022396614,-106
599640922014704307,-102
599640922007012000,-84
599640921999319693,-56
599640921991627386,-38
599640921983935079,-29
599640921976242772,-11
599640921968550465,11
599640921960858158,31
599640921953165851,45
599640921945473544,49
599640921937781237,72
599640921930088930,115
599640921922396623,154
599640921914704316,181
599640921907012009,215
599640921899319702,252
599640923014635972,277
599640923006943665,292
599640922999251358,290
599640922991559051,252
599640922983866744,177
599640922976174437,81
599640922968482130,-15
599640922960789823,-99
599640922953097516,-161
599640922945405209,-190
599640922937712902,-199
599640922930020595,-208
599640922922328288,-238
599640922914635981,-263
599640922906943674,-242
599640922899251367,-213
599640922891559060,-204
599640922883866753,-192
599640922876174446,-172
599640922868482139,-156
599640922860789832,-149
599640922853097525,-140
599640922845405218,-136
599640922837712911,-136
599640922830020604,-122
599640922822328297,-102
599640922814635990,-97
599640922806943683,-95
599640922799251376,-86
599640922791559069,-77
599640922783866762,-74
599640922776174455,-70
599640922768482148,-70
599640922760789841,-72
599640922753097534,-77
599640922745405227,-81
599640922737712920,-90
599640922730020613,-97
599640922722328306,-95
599640922714635999,-88
599640922706943692,-84
599640922699251385,-88
599640922691559078,-95
599640922683866771,-88
599640922676174464,-77
599640922668482157,-72
599640922660789850,-72
599640922653097543,-68
599640922645405236,-59
599640922637712929,-49
599640922630020622,-43
599640922622328315,-47
599640922614636008,-47
599640922606943701,-36
599640922599251394,-27
599640922591559087,-27
599640922583866780,-34
599640922576174473,-43
599640922568482166,-43
599640922560789859,-31
599640922553097552,-36
599640922545405245,-59
599640922537712938,-70
599640922530020631,-59
599640922522328324,-49
599640922514636017,-47
599640922506943710,-45
599640922499251403,-47
599640922491559096,-49
599640922483866789,-43
599640922476174482,-38
599640922468482175,-45
599640922460789868,-47
599640923576136654,-45
599640923568444347,-47
599640923560752040,-59
599640923553059733,-59
599640923545367426,-49
599640923537675119,-45
599640923529982812,-45
599640923522290505,-56
599640923514598198,-74
599640923506905891,-70
599640923499213584,-56
599640923491521277,-54
599640923483828970,-77
599640923476136663,-106
599640923468444356,-111
599640923460752049,-106
599640923453059742,-106
599640923445367435,-102
599640923437675128,-93
599640923429982821,-86
599640923422290514,-81
599640923414598207,-74
599640923406905900,-70
599640923399213593,-63
599640923391521286,-54
599640923383828979,-52
599640923376136672,-61
599640923368444365,-63
599640923360752058,-56
599640923353059751,-56
599640923345367444,-61
599640923337675137,-70
599640923329982830,-86
599640923322290523,-81
599640923314598216,-47
599640923306905909,-18
599640923299213602,-22
599640923291521295,-45
599640923283828988,-47
599640923276136681,-34
599640923268444374,-27
599640923260752067,-27
599640923253059760,-22
599640923245367453,-18
599640923237675146,-15
599640923229982839,-11
599640923222290532,-9
599640923214598225,-11
599640923206905918,6
599640923199213611,145
599640923191521304,499
599640923183828997,1130
599640923176136690,1952
599640923168444383,2302
599640923160752076,1164
599640923153059769,-463
599640923145367462,-485
599640923137675155,104
599640923129982848,-172
599640923122290541,-374
599640923114598234,-154
599640923106905927,-158
599640923099213620,-247
599640923091521313,-168
599640923083829006,-120
599640923076136699,-143
599640923068444392,-120
599640923060752085,-88
599640923053059778,-81
599640923045367471,-61
599640923037675164,-36
599640923029982857,-24
599640923022290550,-6
599640924137622076,18
599640924129929769,34
599640924122237462,52
599640924114545155,72
599640924106852848,97
599640924099160541,127
599640924091468234,152
599640924083775927,165
599640924076083620,186
599640924068391313,224
599640924060699006,263
599640924053006699,286
599640924045314392,277
599640924037622085,229
599640924029929778,186
599640924022237471,147
599640924014545164,54
599640924006852857,-65
599640923999160550,-152
599640923991468243,-204
599640923983775936,-240
599640923976083629,-263
599640923968391322,-274
599640923960699015,-277
599640923953006708,-274
599640923945314401,-265
599640923937622094,-258
599640923929929787,-272
599640923922237480,-279
599640923914545173,-249
599640923906852866,-227
599640923899160559,-227
599640923891468252,-217
599640923883775945,-197
599640923876083638,-183
599640923868391331,-170
599640923860699024,-158
599640923853006717,-154
599640923845314410,-143
599640923837622103,-127
599640923829929796,-120
599640923822237489,-120
599640923814545182,-118
599640923806852875,-115
599640923799160568,-111
599640923791468261,-106
599640923783775954,-104
599640923776083647,-104
599640923768391340,-104
599640923760699033,-115
599640923753006726,-120
599640923745314419,-127
599640923737622112,-140
599640923729929805,-136
599640923722237498,-120
599640923714545191,-115
599640923706852884,-113
599640923699160577,-106
599640923691468270,-97
599640923683775963,-86
599640923676083656,-81
599640923668391349,-84
599640923660699042,-79
599640923653006735,-68
599640923645314428,-59
599640923637622121,-56
599640923629929814,-56
599640923622237507,-56
599640923614545200,-49
599640923606852893,-43
599640923599160586,-40
599640923591468279,-43
599640923583775972,-54
599640924699107500,-68
599640924691415193,-61
599640924683722886,-56
599640924676030579,-77
599640924668338272,-84
599640924660645965,-68
599640924652953658,-61
599640924645261351,-63
599640924637569044,-61
599640924629876737,-59
599640924622184430,-49
599640924614492123,-45
599640924606799816,-61
599640924599107509,-81
599640924591415202,-77
599640924583722895,-59
599640924576030588,-54
599640924568338281,-59
599640924560645974,-56
599640924552953667,-47
599640924545261360,-36
599640924537569053,-29
599640924529876746,-34
599640924522184439,-34
599640924514492132,-27
599640924506799825,-24
599640924499107518,-31
599640924491415211,-49
599640924483722904,-61
599640924476030597,-45
599640924468338290,-22
599640924460645983,2
599640924452953676,11
599640924445261369,-6
599640924437569062,-11
599640924429876755,-13
599640924422184448,-31
599640924414492141,-40
599640924406799834,-36
599640924399107527,-31
599640924391415220,-38
599640924383722913,-45
599640924376030606,-40
599640924368338299,-34
599640924360645992,-29
599640924352953685,-27
599640924345261378,-38
599640924337569071,-68
599640924329876764,-52
599640924322184457,124
599640924314492150,515
599640924306799843,1167
599640924299107536,1973
599640924291415229,2181
599640924283722922,876
599640924276030615,-644
599640924268338308,-454
599640924260646001,99
599640924252953694,-245
599640924245261387,-383
599640924237569080,-161
599640924229876773,-197
599640924222184466,-265
599640924214492159,-174
599640924206799852,-147
599640924199107545,-190
599640924191415238,-179
599640924183722931,-143
599640924176030624,-124
599640924168338317,-108
599640924160646010,-84
599640924152953703,-65
599640924145261396,-59
599640925260608182,-40
599640925252915875,-6
599640925245223568,11
599640925237531261,9
599640925229838954,24
599640925222146647,68
599640925214454340,106
599640925206762033,138
599640925199069726,177
599640925191377419,220
599640925183685112,254
599640925175992805,279
599640925168300498,283
599640925160608191,267
599640925152915884,227
599640925145223577,156
599640925137531270,49
599640925129838963,-65
599640925122146656,-156
599640925114454349,-211
599640925106762042,-238
599640925099069735,-249
599640925091377428,-270
599640925083685121,-288
599640925075992814,-272
599640925068300507,-240
599640925060608200,-227
599640925052915893,-227
599640925045223586,-213
599640925037531279,-192
599640925029838972,-181
599640925022146665,-177
599640925014454358,-170
599640925006762051,-158
599640924999069744,-145
599640924991377437,-136
599640924983685130,-124
599640924975992823,-113
599640924968300516,-106
599640924960608209,-99
599640924952915902,-88
599640924945223595,-93
599640924937531288,-122
599640924929838981,-136
599640924922146674,-118
599640924914454367,-104
599640924906762060,-120
599640924899069753,-127
599640924891377446,-111
599640924883685139,-102
599640924875992832,-102
599640924868300525,-95
599640924860608218,-88
599640924852915911,-86
599640924845223604,-81
599640924837531297,-70
599640924829838990,-63
599640924822146683,-65
599640924814454376,-79
599640924806762069,-90
599640924799069762,-81
599640924791377455,-68
599640924783685148,-70
599640924775992841,-77
599640924768300534,-72
599640924760608227,-70
599640924752915920,-88
599640924745223613,-104
599640924737531306,-90
599640924729838999,-72
599640924722146692,-77
599640924714454385,-84
599640924706762078,-77
599640925822078346,-63
599640925814386039,-54
599640925806693732,-49
599640925799001425,-54
599640925791309118,-56
599640925783616811,-49
599640925775924504,-45
599640925768232197,-52
599640925760539890,-65
599640925752847583,-68
599640925745155276,-38
599640925737462969,-9
599640925729770662,-15
599640925722078355,-40
599640925714386048,-45
599640925706693741,-40
599640925699001434,-47
599640925691309127,-68
599640925683616820,-90
599640925675924513,-90
599640925668232206,-74
599640925660539899,-72
599640925652847592,-81
599640925645155285,-84
599640925637462978,-74
599640925629770671,-61
599640925622078364,-52
599640925614386057,-49
599640925606693750,34
599640925599001443,333
599640925591309136,862
599640925583616829,1600
599640925575924522,2179
599640925568232215,1555
599640925560539908,-118
599640925552847601,-685
599640925545155294,-2
599640925537462987,18
599640925529770680,-358
599640925522078373,-213
599640925514386066,-95
599640925506693759,-217
599640925499001452,-227
599640925491309145,-170
599640925483616838,-168
599640925475924531,-156
599640925468232224,-136
599640925460539917,-127
599640925452847610,-104
599640925445155303,-77
599640925437462996,-61
599640925429770689,-56
599640925422078382,-54
599640925414386075,-31
599640925406693768,-4
599640925399001461,11
599640925391309154,34
599640925383616847,68
599640925375924540,99
599640925368232233,133
599640925360539926,177
599640925352847619,204
599640925345155312,222
599640925337463005,247
599640925329770698,267
599640925322078391,267
599640925314386084,229
599640925306693777,136
599640925299001470,9
599640925291309163,-108
599640925283616856,-208
599640925275924549,-274
599640925268232242,-306
599640926383579028,-311
599640926375886721,-311
599640926368194414,-317
599640926360502107,-333
599640926352809800,-336
599640926345117493,-311
599640926337425186,-290
599640926329732879,-286
599640926322040572,-272
599640926314348265,-254
599640926306655958,-240
599640926298963651,-227
599640926291271344,-211
599640926283579037,-197
599640926275886730,-188
599640926268194423,-177
599640926260502116,-165
599640926252809809,-170
599640926245117502,-183
599640926237425195,-181
599640926229732888,-163
599640926222040581,-156
599640926214348274,-156
599640926206655967,-152
599640926198963660,-147
599640926191271353,-143
599640926183579046,-140
599640926175886739,-145
599640926168194432,-147
599640926160502125,-140
599640926152809818,-131
599640926145117511,-122
599640926137425204,-118
599640926129732897,-122
599640926122040590,-113
599640926114348283,-99
599640926106655976,-104
599640926098963669,-124
599640926091271362,-138
599640926083579055,-127
599640926075886748,-115
599640926068194441,-104
599640926060502134,-95
599640926052809827,-106
599640926045117520,-120
599640926037425213,-120
599640926029732906,-115
599640926022040599,-120
599640926014348292,-122
599640926006655985,-111
599640925998963678,-97
599640925991271371,-90
599640925983579064,-65
599640925975886757,-29
599640925968194450,-36
599640925960502143,-59
599640925952809836,-47
599640925945117529,-52
599640925937425222,-72
599640925929732915,-61
599640925922040608,-47
599640925914348301,-68
599640925906655994,-97
599640925898963687,-95
599640925891271380,-70
599640925883579073,-61
599640925875886766,-65
599640925868194459,-61
599640925860502152,-59
599640925852809845,-31
599640925845117538,138
599640925837425231,506
599640925829732924,1094
599640926945079710,1827
599640926937387403,2013
599640926929695096,792
599640926922002789,-610
599640926914310482,-413
599640926906618175,111
599640926898925868,-206
599640926891233561,-345
599640926883541254,-163
599640926875848947,-206
599640926868156640,-254
599640926860464333,-168
599640926852772026,-154
599640926845079719,-195
599640926837387412,-186
599640926829695105,-147
599640926822002798,-120
599640926814310491,-108
599640926806618184,-95
599640926798925877,-70
599640926791233570,-38
599640926783541263,-18
599640926775848956,0
599640926768156649,27
599640926760464342,52
599640926752772035,88
599640926745079728,133
599640926737387421,168
599640926729695114,206
599640926722002807,258
599640926714310500,301
599640926706618193,324
599640926698925886,333
599640926691233579,322
599640926683541272,288
599640926675848965,211
599640926668156658,68
599640926660464351,-77
599640926652772044,-172
599640926645079737,-236
599640926637387430,-279
599640926629695123,-290
599640926622002816,-295
599640926614310509,-304
599640926606618202,-297
599640926598925895,-270
599640926591233588,-254
599640926583541281,-249
599640926575848974,-238
599640926568156667,-224
599640926560464360,-215
599640926552772053,-202
599640926545079746,-195
599640926537387439,-195
599640926529695132,-181
599640926522002825,-165
599640926514310518,-163
599640926506618211,-183
599640926498925904,-188
599640926491233597,-168
599640926483541290,-152
599640926475848983,-154
599640926468156676,-152
599640926460464369,-143
599640926452772062,-140
599640926445079755,-140
599640926437387448,-131
599640926429695141,-138
599640926422002834,-163
599640926414310527,-163
599640926406618220,-154
599640926398925913,-165
599640926391233606,-170
599640927506549874,-158
599640927498857567,-154
599640927491165260,-149
599640927483472953,-158
599640927475780646,-174
599640927468088339,-170
599640927460396032,-161
599640927452703725,-165
599640927445011418,-177
599640927437319111,-181
599640927429626804,-177
599640927421934497,-163
599640927414242190,-138
599640927406549883,-122
599640927398857576,-120
599640927391165269,-115
599640927383472962,-111
599640927375780655,-115
599640927368088348,-122
599640927360396041,-111
599640927352703734,-99
599640927345011427,-111
599640927337319120,-99
599640927329626813,-70
599640927321934506,-70
599640927314242199,-90
599640927306549892,-77
599640927298857585,-43
599640927291165278,2
599640927283472971,179
599640927275780664,563
599640927268088357,1171
599640927260396050,1879
599640927252703743,1798
599640927245011436,333
599640927237319129,-749
599640927229626822,-222
599640927221934515,108
599640927214242208,-290
599640927206549901,-256
599640927198857594,-72
599640927191165287,-170
599640927183472980,-199
599640927175780673,-124
599640927168088366,-97
599640927160396059,-95
599640927152703752,-70
599640927145011445,-13
599640927137319138,20
599640927129626831,9
599640927121934524,-4
599640927114242217,27
599640927106549910,56
599640927098857603,43
599640927091165296,45
599640927083472989,102
599640927075780682,170
599640927068088375,181
599640927060396068,181
599640927052703761,258
599640927045011454,317
599640927037319147,317
599640927029626840,349
599640927021934533,397
599640927014242226,388
599640927006549919,349
599640926998857612,317
599640926991165305,258
599640926983472998,131
599640926975780691,-15
599640926968088384,-111
599640926960396077,-143
599640926952703770,-163
599640928068050556,-195
599640928060358249,-211
599640928052665942,-208
599640928044973635,-202
599640928037281328,-197
599640928029589021,-188
599640928021896714,-170
599640928014204407,-154
599640928006512100,-161
599640927998819793,-165
599640927991127486,-138
599640927983435179,-111
599640927975742872,-120
599640927968050565,-129
599640927960358258,-115
599640927952665951,-88
599640927944973644,-72
599640927937281337,-74
599640927929589030,-77
599640927921896723,-68
599640927914204416,-61
599640927906512109,-81
599640927898819802,-99
599640927891127495,-111
599640927883435188,-122
599640927875742881,-108
599640927868050574,-90
599640927860358267,-90
599640927852665960,-95
599640927844973653,-102
599640927837281346,-106
599640927829589039,-97
599640927821896732,-90
599640927814204425,-95
599640927806512118,-97
599640927798819811,-88
599640927791127504,-74
599640927783435197,-63
599640927775742890,-59
599640927768050583,-49
599640927760358276,-40
599640927752665969,-54
599640927744973662,-77
599640927737281355,-77
599640927729589048,-63
599640927721896741,-61
599640927714204434,-70
599640927706512127,-84
599640927698819820,-97
599640927691127513,-95
599640927683435206,-88
599640927675742899,-88
599640927668050592,-86
599640927660358285,-36
599640927652665978,190
599640927644973671,635
599640927637281364,1235
599640927629589057,1855
599640927621896750,1782
599640927614204443,331
599640927606512136,-887
599640927598819829,-358
599640927591127522,131
599640927583435215,-270
599640927575742908,-315
599640927568050601,-90
599640927560358294,-165
599640927552665987,-233
599640927544973680,-156
599640927537281373,-143
599640927529589066,-165
599640927521896759,-140
599640927514204452,-131
599640928629520720,-143
599640928621828413,-122
599640928614136106,-90
599640928606443799,-65
599640928598751492,-40
599640928591059185,-24
599640928583366878,-4
599640928575674571,22
599640928567982264,49
599640928560289957,93
599640928552597650,143
599640928544905343,190
599640928537213036,233
599640928529520729,249
599640928521828422,254
599640928514136115,297
599640928506443808,324
599640928498751501,290
599640928491059194,202
599640928483366887,47
599640928475674580,-95
599640928467982273,-181
599640928460289966,-249
599640928452597659,-320
599640928444905352,-365
599640928437213045,-379
599640928429520738,-356
599640928421828431,-329
599640928414136124,-308
599640928406443817,-308
599640928398751510,-313
599640928391059203,-297
599640928383366896,-279
599640928375674589,-254
599640928367982282,-224
599640928360289975,-215
599640928352597668,-204
599640928344905361,-174
599640928337213054,-168
599640928329520747,-181
599640928321828440,-165
599640928314136133,-143
599640928306443826,-163
599640928298751519,-211
599640928291059212,-220
599640928283366905,-186
599640928275674598,-179
599640928267982291,-183
599640928260289984,-143
599640928252597677,-131
599640928244905370,-199
599640928237213063,-204
599640928229520756,-145
599640928221828449,-154
599640928214136142,-154
599640928206443835,-124
599640928198751528,-154
599640928191059221,-172
599640928183366914,-133
599640928175674607,-115
599640928167982300,-111
599640928160289993,-88
599640928152597686,-93
599640928144905379,-102
599640928137213072,-88
599640928129520765,-102
599640928121828458,-131
599640928114136151,-124
599640928106443844,-122
599640928098751537,-113
599640928091059230,-104
599640928083366923,-124
599640928075674616,-113
599640929191021402,-77
599640929183329095,-95
599640929175636788,-61
599640929167944481,192
599640929160252174,649
599640929152559867,1310
599640929144867560,1975
599640929137175253,1609
599640929129482946,-27
599640929121790639,-865
599640929114098332,-202
599640929106406025,0
599640929098713718,-433
599640929091021411,-354
599640929083329104,-147
599640929075636797,-256
599640929067944490,-311
599640929060252183,-211
599640929052559876,-183
599640929044867569,-222
599640929037175262,-213
599640929029482955,-172
599640929021790648,-131
599640929014098341,-131
599640929006406034,-143
599640928998713727,-106
599640928991021420,-52
599640928983329113,-27
599640928975636806,-34
599640928967944499,-4
599640928960252192,52
599640928952559885,72
599640928944867578,88
599640928937175271,136
599640928929482964,190
599640928921790657,211
599640928914098350,220
599640928906406043,254
599640928898713736,263
599640928891021429,206
599640928883329122,106
599640928875636815,27
599640928867944508,-63
599640928860252201,-197
599640928852559894,-270
599640928844867587,-277
599640928837175280,-308
599640928829482973,-333
599640928821790666,-317
599640928814098359,-308
599640928806406052,-322
599640928798713745,-306
599640928791021438,-272
599640928783329131,-272
599640928775636824,-288
599640928767944517,-256
599640928760252210,-213
599640928752559903,-229
599640928744867596,-245
599640928737175289,-211
599640928729482982,-186
599640928721790675,-188
599640928714098368,-197
599640928706406061,-211
599640928698713754,-213
599640928691021447,-206
599640928683329140,-197
599640928675636833,-188
599640928667944526,-179
599640928660252219,-174
599640928652559912,-188
599640928644867605,-197
599640928637175298,-181
599640929752522084,-172
599640929744829777,-179
599640929737137470,-172
599640929729445163,-161
599640929721752856,-179
599640929714060549,-188
599640929706368242,-163
599640929698675935,-158
599640929690983628,-165
599640929683291321,-147
599640929675599014,-133
599640929667906707,-140
599640929660214400,-133
599640929652522093,-131
599640929644829786,-161
599640929637137479,-174
599640929629445172,-161
599640929621752865,-147
599640929614060558,-133
599640929606368251,-118
599640929598675944,-104
599640929590983637,-84
599640929583291330,-68
599640929575599023,-90
599640929567906716,-108
599640929560214409,-93
599640929552522102,-86
599640929544829795,-99
599640929537137488,-93
599640929529445181,-81
599640929521752874,-77
599640929514060567,-68
599640929506368260,-61
599640929498675953,-70
599640929490983646,-79
599640929483291339,13
599640929475599032,313
599640929467906725,890
599640929460214418,1768
599640929452522111,2411
599640929444829804,1643
599640929437137497,-174
599640929429445190,-735
599640929421752883,-45
599640929414060576,-61
599640929406368269,-431
599640929398675962,-265
599640929390983655,-149
599640929383291348,-258
599640929375599041,-236
599640929367906734,-168
599640929360214427,-179
599640929352522120,-163
599640929344829813,-115
599640929337137506,-95
599640929329445199,-86
599640929321752892,-88
599640929314060585,-115
599640929306368278,-113
599640929298675971,-61
599640929290983664,-13
599640929283291357,0
599640929275599050,24
599640929267906743,56
599640929260214436,65
599640929252522129,86
599640929244829822,140
599640929237137515,195
599640929229445208,247
599640929221752901,295
599640929214060594,304
599640929206368287,295
599640929198675980,277
599640930313992248,215
599640930306299941,104
599640930298607634,-9
599640930290915327,-81
599640930283223020,-147
599640930275530713,-195
599640930267838406,-197
599640930260146099,-213
599640930252453792,-263
599640930244761485,-263
599640930237069178,-227
599640930229376871,-215
599640930221684564,-206
599640930213992257,-174
599640930206299950,-170
599640930198607643,-183
599640930190915336,-158
599640930183223029,-120
599640930175530722,-138
599640930167838415,-199
599640930160146108,-199
599640930152453801,-136
599640930144761494,-118
599640930137069187,-147
599640930129376880,-143
599640930121684573,-118
599640930113992266,-124
599640930106299959,-136
599640930098607652,-122
599640930090915345,-120
599640930083223038,-127
599640930075530731,-127
599640930067838424,-129
599640930060146117,-138
599640930052453810,-152
599640930044761503,-138
599640930037069196,-113
599640930029376889,-122
599640930021684582,-138
599640930013992275,-124
599640930006299968,-113
599640929998607661,-120
599640929990915354,-124
599640929983223047,-120
599640929975530740,-111
599640929967838433,-102
599640929960146126,-115
599640929952453819,-138
599640929944761512,-138
599640929937069205,-124
599640929929376898,-120
599640929921684591,-108
599640929913992284,-99
599640929906299977,-108
599640929898607670,-127
599640929890915363,-120
599640929883223056,-104
599640929875530749,-127
599640929867838442,-158
599640929860146135,-158
599640929852453828,-129
599640929844761521,-104
599640929837069214,-120
599640929829376907,-156
599640929821684600,-163
599640929813992293,-136
599640929806299986,-115
599640929798607679,-99
599640929790915372,-72
599640929783223065,-56
599640929775530758,-56
599640929767838451,-45
599640929760146144,-27
599640930875492930,-18
599640930867800623,-2
599640930860108316,27
599640930852416009,65
599640930844723702,74
599640930837031395,49
599640930829339088,40
599640930821646781,54
599640930813954474,45
599640930806262167,22
599640930798569860,13
599640930790877553,22
599640930783185246,20
599640930775492939,-11
599640930767800632,-47
599640930760108325,-52
599640930752416018,-27
599640930744723711,-11
599640930737031404,-9
599640930729339097,-4
599640930721646790,-15
599640930713954483,-27
599640930706262176,-13
599640930698569869,6
599640930690877562,2
599640930683185255,-13
599640930675492948,-9
599640930667800641,2
599640930660108334,-11
599640930652416027,-31
599640930644723720,-24
599640930637031413,0
599640930629339106,61
599640930621646799,274
599640930613954492,712
599640930606262185,1378
599640930598569878,2079
599640930590877571,1907
599640930583185264,290
599640930575492957,-858
599640930567800650,-286
599640930560108343,43
599640930552416036,-404
599640930544723729,-376
599640930537031422,-172
599640930529339115,-258
599640930521646808,-270
599640930513954501,-181
599640930506262194,-190
599640930498569887,-199
599640930490877580,-170
599640930483185273,-165
599640930475492966,-172
599640930467800659,-170
599640930460108352,-154
599640930452416045,-118
599640930444723738,-84
599640930437031431,-52
599640930429339124,-24
599640930421646817,-6
599640930413954510,27
599640930406262203,72
599640930398569896,104
599640930390877589,140
599640930383185282,181
599640930375492975,215
599640930367800668,252
599640930360108361,286
599640930352416054,290
599640930344723747,279
599640930337031440,261
599640930329339133,215
599640930321646826,108
599640931436993612,-29
599640931429301305,-133
599640931421608998,-192
599640931413916691,-240
599640931406224384,-261
599640931398532077,-254
599640931390839770,-247
599640931383147463,-245
599640931375455156,-242
599640931367762849,-249
599640931360070542,-249
599640931352378235,-227
599640931344685928,-213
599640931336993621,-211
599640931329301314,-215
599640931321609007,-215
599640931313916700,-197
599640931306224393,-186
599640931298532086,-181
599640931290839779,-163
599640931283147472,-136
599640931275455165,-147
599640931267762858,-174
599640931260070551,-172
599640931252378244,-181
599640931244685937,-195
599640931236993630,-177
599640931229301323,-163
599640931221609016,-161
599640931213916709,-154
599640931206224402,-156
599640931198532095,-147
599640931190839788,-131
599640931183147481,-131
599640931175455174,-129
599640931167762867,-108
599640931160070560,-106
599640931152378253,-113
599640931144685946,-108
599640931136993639,-102
599640931129301332,-97
599640931121609025,-93
599640931113916718,-102
599640931106224411,-120
599640931098532104,-122
599640931090839797,-102
599640931083147490,-97
599640931075455183,-124
599640931067762876,-149
599640931060070569,-154
599640931052378262,-136
599640931044685955,-115
599640931036993648,-111
599640931029301341,-113
599640931021609034,-113
599640931013916727,-104
599640931006224420,-79
599640930998532113,-74
599640930990839806,-88
599640930983147499,-84
599640930975455192,-86
599640930967762885,-88
599640930960070578,-70
599640930952378271,-63
599640930944685964,-72
599640930936993657,-65
599640930929301350,-52
599640930921609043,-47
599640930913916736,-52
599640930906224429,-52
599640930898532122,-45
599640930890839815,-45
599640930883147508,-65
599640931998494294,-86
599640931990801987,-81
599640931983109680,-59
599640931975417373,-45
599640931967725066,-45
599640931960032759,-65
599640931952340452,-79
599640931944648145,-77
599640931936955838,-59
599640931929263531,-56
599640931921571224,-86
599640931913878917,-108
599640931906186610,-90
599640931898494303,-72
599640931890801996,-72
599640931883109689,-70
599640931875417382,-38
599640931867725075,133
599640931860032768,519
599640931852340461,1119
599640931844648154,1855
599640931836955847,2063
599640931829263540,801
599640931821571233,-674
599640931813878926,-445
599640931806186619,131
599640931798494312,-206
599640931790802005,-340
599640931783109698,-118
599640931775417391,-165
599640931767725084,-245
599640931760032777,-152
599640931752340470,-120
599640931744648163,-147
599640931736955856,-120
599640931729263549,-99
599640931721571242,-99
599640931713878935,-70
599640931706186628,-22
599640931698494321,-2
599640931690802014,-9
599640931683109707,0
599640931675417400,43
599640931667725093,65
599640931660032786,56
599640931652340479,77
599640931644648172,140
599640931636955865,183
599640931629263558,197
599640931621571251,220
599640931613878944,270
599640931606186637,308
599640931598494330,290
599640931590802023,290
599640931583109716,317
599640931575417409,261
599640931567725102,143
599640931560032795,47
599640931552340488,-52
599640931544648181,-127
599640931536955874,-156
599640931529263567,-195
599640931521571260,-204
599640931513878953,-195
599640931506186646,-236
599640931498494339,-261
599640931490802032,-227
599640931483109725,-213
599640931475417418,-242
599640931467725111,-245
599640931460032804,-213
599640931452340497,-208
599640931444648190,-208
599640932559994976,-195
599640932552302669,-192
599640932544610362,-188
599640932536918055,-163
599640932529225748,-154
599640932521533441,-174
599640932513841134,-170
599640932506148827,-172
599640932498456520,-181
599640932490764213,-140
599640932483071906,-122
599640932475379599,-170
599640932467687292,-181
599640932459994985,-165
599640932452302678,-177
599640932444610371,-202
599640932436918064,-199
599640932429225757,-165
599640932421533450,-165
599640932413841143,-204
599640932406148836,-227
599640932398456529,-206
599640932390764222,-183
599640932383071915,-179
599640932375379608,-172
599640932367687301,-145
599640932359994994,-88
599640932352302687,-54
599640932344610380,-77
599640932336918073,-136
599640932329225766,-183
599640932321533459,-165
599640932313841152,-118
599640932306148845,-122
599640932298456538,-145
599640932290764231,-149
599640932283071924,-147
599640932275379617,-127
599640932267687310,-118
599640932259995003,-154
599640932252302696,-192
599640932244610389,-188
599640932236918082,-163
599640932229225775,-163
599640932221533468,-163
599640932213841161,-156
599640932206148854,-168
599640932198456547,-181
599640932190764240,-172
599640932183071933,-152
599640932175379626,-133
599640932167687319,-122
599640932159995012,-104
599640932152302705,-115
599640932144610398,-145
599640932136918091,-127
599640932129225784,-90
599640932121533477,-86
599640932113841170,-115
599640932106148863,-138
599640932098456556,-102
599640932090764249,-72
599640932083071942,-79
599640932075379635,-77
599640932067687328,-108
599640932059995021,-154
599640932052302714,-118
599640932044610407,-90
599640932036918100,-115
599640932029225793,-108
599640932021533486,-88
599640932013841179,-81
599640932006148872,-97
599640933121470226,-115
599640933113777919,-74
599640933106085612,-59
599640933098393305,-29
599640933090700998,231
599640933083008691,728
599640933075316384,1466
599640933067624077,2229
599640933059931770,1920
599640933052239463,195
599640933044547156,-806
599640933036854849,-186
599640933029162542,47
599640933021470235,-361
599640933013777928,-324
599640933006085621,-227
599640932998393314,-311
599640932990701007,-256
599640932983008700,-190
599640932975316393,-227
599640932967624086,-222
599640932959931779,-161
599640932952239472,-133
599640932944547165,-133
599640932936854858,-131
599640932929162551,-124
599640932921470244,-104
599640932913777937,-77
599640932906085630,-52
599640932898393323,-24
599640932890701016,-20
599640932883008709,6
599640932875316402,72
599640932867624095,77
599640932859931788,61
599640932852239481,131
599640932844547174,206
599640932836854867,220
599640932829162560,240
599640932821470253,233
599640932813777946,195
599640932806085639,211
599640932798393332,188
599640932790701025,47
599640932783008718,-88
599640932775316411,-138
599640932767624104,-183
599640932759931797,-245
599640932752239490,-279
599640932744547183,-279
599640932736854876,-281
599640932729162569,-277
599640932721470262,-245
599640932713777955,-233
599640932706085648,-242
599640932698393341,-220
599640932690701034,-215
599640932683008727,-238
599640932675316420,-224
599640932667624113,-227
599640932659931806,-242
599640932652239499,-202
599640932644547192,-177
599640932636854885,-195
599640932629162578,-183
599640932621470271,-168
599640932613777964,-172
599640932606085657,-168
599640932598393350,-158
599640932590701043,-154
599640932583008736,-152
599640932575316429,-152
599640932567624122,-145
599640933682965822,-136
599640933675273515,-143
599640933667581208,-143
599640933659888901,-113
599640933652196594,-108
599640933644504287,-140
599640933636811980,-138
599640933629119673,-104
599640933621427366,-106
599640933613735059,-120
599640933606042752,-127
599640933598350445,-147
599640933590658138,-133
599640933582965831,-127
599640933575273524,-163
599640933567581217,-174
599640933559888910,-145
599640933552196603,-138
599640933544504296,-149
599640933536811989,-133
599640933529119682,-122
599640933521427375,-131
599640933513735068,-122
599640933506042761,-106
599640933498350454,-115
599640933490658147,-120
599640933482965840,-102
599640933475273533,-79
599640933467581226,-74
599640933459888919,-68
599640933452196612,-47
599640933444504305,-52
599640933436811998,-81
599640933429119691,-86
599640933421427384,-81
599640933413735077,-95
599640933406042770,-97
599640933398350463,-84
599640933390658156,-81
599640933382965849,-77
599640933375273542,-59
599640933367581235,-54
599640933359888928,-68
599640933352196621,40
599640933344504314,406
599640933336812007,1044
599640933329119700,1959
599640933321427393,2506
599640933313735086,1421
599640933306042779,-424
599640933298350472,-606
599640933290658165,95
599640933282965858,-127
599640933275273551,-424
599640933267581244,-229
599640933259888937,-199
599640933252196630,-299
599640933244504323,-242
599640933236812016,-192
599640933229119709,-213
599640933221427402,-181
599640933213735095,-136
599640933206042788,-133
599640933198350481,-124
599640933190658174,-93
599640933182965867,-68
599640933175273560,-47
599640933167581253,-24
599640933159888946,-4
599640933152196639,15
599640933144504332,40
599640933136812025,72
599640933129119718,113
599640934244466504,147
599640934236774197,177
599640934229081890,220
599640934221389583,265
599640934213697276,295
599640934206004969,308
599640934198312662,295
599640934190620355,267
599640934182928048,227
599640934175235741,136
599640934167543434,0
599640934159851127,-120
599640934152158820,-188
599640934144466513,-224
599640934136774206,-247
599640934129081899,-258
599640934121389592,-265
599640934113697285,-252
599640934106004978,-236
599640934098312671,-245
599640934090620364,-261
599640934082928057,-247
599640934075235750,-220
599640934067543443,-204
599640934059851136,-197
599640934052158829,-190
599640934044466522,-177
599640934036774215,-161
599640934029081908,-149
599640934021389601,-156
599640934013697294,-177
599640934006004987,-168
599640933998312680,-143
599640933990620373,-143
599640933982928066,-143
599640933975235759,-131
599640933967543452,-131
599640933959851145,-138
599640933952158838,-136
599640933944466531,-131
599640933936774224,-129
599640933929081917,-124
599640933921389610,-118
599640933913697303,-118
599640933906004996,-118
599640933898312689,-115
599640933890620382,-108
599640933882928075,-104
599640933875235768,-115
599640933867543461,-124
599640933859851154,-118
599640933852158847,-111
599640933844466540,-115
599640933836774233,-122
599640933829081926,-143
599640933821389619,-154
599640933813697312,-143
599640933806005005,-131
599640933798312698,-127
599640933790620391,-124
599640933782928084,-122
599640933775235777,-122
599640933767543470,-115
599640933759851163,-104
599640933752158856,-99
599640933744466549,-95
599640933736774242,-90
599640933729081935,-90
599640933721389628,-95
599640933713697321,-97
599640933706005014,-95
599640933698312707,-93
599640933690620400,-97
599640934805967186,-99
599640934798274879,-97
599640934790582572,-95
599640934782890265,-97
599640934775197958,-99
599640934767505651,-99
599640934759813344,-104
599640934752121037,-104
599640934744428730,-95
599640934736736423,-90
599640934729044116,-104
599640934721351809,-115
599640934713659502,-102
599640934705967195,-97
599640934698274888,-86
599640934690582581,56
599640934682890274,435
599640934675197967,1112
599640934667505660,2038
599640934659813353,2465
599640934652121046,1228
599640934644428739,-549
599640934636736432,-558
599640934629044125,95
599640934621351818,-213
599640934613659511,-440
599640934605967204,-197
599640934598274897,-190
599640934590582590,-283
599640934582890283,-217
599640934575197976,-188
599640934567505669,-206
599640934559813362,-168
599640934552121055,-133
599640934544428748,-127
599640934536736441,-111
599640934529044134,-88
599640934521351827,-68
599640934513659520,-49
599640934505967213,-34
599640934498274906,-18
599640934490582599,9
599640934482890292,34
599640934475197985,63
599640934467505678,97
599640934459813371,131
599640934452121064,170
599640934444428757,206
599640934436736450,233
599640934429044143,245
599640934421351836,252
599640934413659529,263
599640934405967222,261
599640934398274915,217
599640934390582608,127
599640934382890301,11
599640934375197994,-81
599640934367505687,-145
599640934359813380,-188
599640934352121073,-220
599640934344428766,-231
599640934336736459,-227
599640934329044152,-222
599640934321351845,-229
599640934313659538,-231
599640934305967231,-213
599640934298274924,-197
599640934290582617,-188
599640934282890310,-179
599640934275198003,-168
599640934267505696,-158
599640934259813389,-156
599640934252121082,-149
599640935367462780,-152
599640935359770473,-168
599640935352078166,-158
599640935344385859,-133
599640935336693552,-133
599640935329001245,-152
599640935321308938,-165
599640935313616631,-154
599640935305924324,-138
599640935298232017,-136
599640935290539710,-136
599640935282847403,-138
599640935275155096,-133
599640935267462789,-124
599640935259770482,-115
599640935252078175,-113
599640935244385868,-111
599640935236693561,-106
599640935229001254,-99
599640935221308947,-104
599640935213616640,-129
599640935205924333,-147
599640935198232026,-131
599640935190539719,-118
599640935182847412,-118
599640935175155105,-115
599640935167462798,-111
599640935159770491,-102
599640935152078184,-95
599640935144385877,-95
599640935136693570,-97
599640935129001263,-90
599640935121308956,-81
599640935113616649,-72
599640935105924342,-70
599640935098232035,-74
599640935090539728,-74
599640935082847421,-72
599640935075155114,-72
599640935067462807,-77
599640935059770500,-74
599640935052078193,-72
599640935044385886,-72
599640935036693579,-72
599640935029001272,-86
599640935021308965,-108
599640935013616658,-106
599640935005924351,-93
599640934998232044,-90
599640934990539737,-88
599640934982847430,-81
599640934975155123,-79
599640934967462816,-77
599640934959770509,-81
599640934952078202,-84
599640934944385895,-86
599640934936693588,-86
599640934929001281,-79
599640934921308974,-63
599640934913616667,-47
599640934905924360,-45
599640934898232053,-56
599640934890539746,-70
599640934882847439,-70
599640934875155132,-70
599640934867462825,-70
599640934859770518,-63
599640934852078211,-52
599640934844385904,-54
599640934836693597,-72
599640934829001290,-77
599640934821308983,-72
599640934813616676,-54
599640935928968548,84
599640935921276241,451
599640935913583934,1123
599640935905891627,2027
599640935898199320,2413
599640935890507013,1167
599640935882814706,-581
599640935875122399,-567
599640935867430092,88
599640935859737785,-211
599640935852045478,-429
599640935844353171,-192
599640935836660864,-190
599640935828968557,-281
599640935821276250,-204
599640935813583943,-186
599640935805891636,-233
599640935798199329,-195
599640935790507022,-143
599640935782814715,-140
599640935775122408,-124
599640935767430101,-99
599640935759737794,-88
599640935752045487,-65
599640935744353180,-38
599640935736660873,-20
599640935728968566,4
599640935721276259,34
599640935713583952,59
599640935705891645,90
599640935698199338,124
599640935690507031,158
599640935682814724,202
599640935675122417,238
599640935667430110,265
599640935659737803,286
599640935652045496,301
599640935644353189,299
599640935636660882,265
599640935628968575,177
599640935621276268,47
599640935613583961,-61
599640935605891654,-124
599640935598199347,-174
599640935590507040,-211
599640935582814733,-227
599640935575122426,-227
599640935567430119,-220
599640935559737812,-222
599640935552045505,-227
599640935544353198,-213
599640935536660891,-192
599640935528968584,-188
599640935521276277,-186
599640935513583970,-177
599640935505891663,-165
599640935498199356,-149
599640935490507049,-136
599640935482814742,-129
599640935475122435,-118
599640935467430128,-111
599640935459737821,-102
599640935452045514,-93
599640935444353207,-97
599640935436660900,-120
599640935428968593,-129
599640935421276286,-115
599640935413583979,-106
599640935405891672,-111
599640935398199365,-111
599640935390507058,-106
599640935382814751,-104
599640935375122444,-97
599640936490469232,-93
599640936482776925,-93
599640936475084618,-93
599640936467392311,-86
599640936459700004,-79
599640936452007697,-88
599640936444315390,-108
599640936436623083,-113
599640936428930776,-106
599640936421238469,-106
599640936413546162,-108
599640936405853855,-106
599640936398161548,-108
599640936390469241,-106
599640936382776934,-99
599640936375084627,-118
599640936367392320,-138
599640936359700013,-127
599640936352007706,-104
599640936344315399,-104
599640936336623092,-111
599640936328930785,-115
599640936321238478,-118
599640936313546171,-113
599640936305853864,-104
599640936298161557,-102
599640936290469250,-93
599640936282776943,-68
599640936275084636,-63
599640936267392329,-84
599640936259700022,-93
599640936252007715,-84
599640936244315408,-84
599640936236623101,-86
599640936228930794,-90
599640936221238487,-111
599640936213546180,-120
599640936205853873,-102
599640936198161566,-88
599640936190469259,-93
599640936182776952,-95
599640936175084645,-6
599640936167392338,295
599640936159700031,871
599640936152007724,1711
599640936144315417,2331
599640936136623110,1564
599640936128930803,-245
599640936121238496,-737
599640936113546189,-20
599640936105853882,-72
599640936098161575,-429
599640936090469268,-245
599640936082776961,-149
599640936075084654,-270
599640936067392347,-229
599640936059700040,-154
599640936052007733,-177
599640936044315426,-172
599640936036623119,-147
599640936028930812,-158
599640936021238505,-143
599640936013546198,-102
599640936005853891,-86
599640935998161584,-74
599640935990469277,-49
599640935982776970,-20
599640935975084663,6
599640935967392356,29
599640935959700049,54
599640935952007742,84
599640935944315435,124
599640935936623128,168
599640937051969914,206
599640937044277607,238
599640937036585300,263
599640937028892993,279
599640937021200686,292
599640937013508379,286
599640937005816072,240
599640936998123765,149
599640936990431458,36
599640936982739151,-63
599640936975046844,-143
599640936967354537,-199
599640936959662230,-227
599640936951969923,-231
599640936944277616,-233
599640936936585309,-254
599640936928893002,-283
599640936921200695,-279
599640936913508388,-247
599640936905816081,-236
599640936898123774,-231
599640936890431467,-213
599640936882739160,-192
599640936875046853,-177
599640936867354546,-161
599640936859662239,-152
599640936851969932,-147
599640936844277625,-131
599640936836585318,-113
599640936828893011,-108
599640936821200704,-108
599640936813508397,-104
599640936805816090,-104
599640936798123783,-113
599640936790431476,-122
599640936782739169,-122
599640936775046862,-120
599640936767354555,-113
599640936759662248,-111
599640936751969941,-113
599640936744277634,-120
599640936736585327,-120
599640936728893020,-108
599640936721200713,-99
599640936713508406,-106
599640936705816099,-118
599640936698123792,-118
599640936690431485,-111
599640936682739178,-104
599640936675046871,-104
599640936667354564,-108
599640936659662257,-99
599640936651969950,-86
599640936644277643,-86
599640936636585336,-102
599640936628893029,-120
599640936621200722,-118
599640936613508415,-102
599640936605816108,-95
599640936598123801,-95
599640936590431494,-90
599640936582739187,-86
599640936575046880,-93
599640936567354573,-93
599640936559662266,-90
599640936551969959,-93
599640936544277652,-93
599640936536585345,-97
599640936528893038,-104
599640936521200731,-102
599640936513508424,-95
599640936505816117,-88
599640936498123810,-81
599640937613455336,-81
599640937605763029,-84
599640937598070722,-84
599640937590378415,-81
599640937582686108,-81
599640937574993801,-86
599640937567301494,-99
599640937559609187,-106
599640937551916880,-81
599640937544224573,-49
599640937536532266,-59
599640937528839959,-97
599640937521147652,-113
599640937513455345,-93
599640937505763038,-84
599640937498070731,-90
599640937490378424,-84
599640937482686117,-70
599640937474993810,-65
599640937467301503,-65
599640937459609196,-61
599640937451916889,-59
599640937444224582,-49
599640937436532275,56
599640937428839968,374
599640937421147661,967
599640937413455354,1820
599640937405763047,2402
599640937398070740,1534
599640937390378433,-288
599640937382686126,-710
599640937374993819,-24
599640937367301512,-122
599640937359609205,-440
599640937351916898,-252
599640937344224591,-181
599640937336532284,-290
599640937328839977,-236
599640937321147670,-168
599640937313455363,-183
599640937305763056,-170
599640937298070749,-131
599640937290378442,-120
599640937282686135,-108
599640937274993828,-81
599640937267301521,-63
599640937259609214,-49
599640937251916907,-22
599640937244224600,2
599640937236532293,4
599640937228839986,2
599640937221147679,27
599640937213455372,65
599640937205763065,102
599640937198070758,136
599640937190378451,170
599640937182686144,208
599640937174993837,242
599640937167301530,263
599640937159609223,267
599640937151916916,265
599640937144224609,238
599640937136532302,174
599640937128839995,79
599640937121147688,-27
599640937113455381,-111
599640937105763074,-163
599640937098070767,-197
599640937090378460,-213
599640937082686153,-213
599640937074993846,-206
599640937067301539,-199
599640937059609232,-190
599640938174971278,-186
599640938167278971,-199
599640938159586664,-204
599640938151894357,-181
599640938144202050,-158
599640938136509743,-163
599640938128817436,-177
599640938121125129,-177
599640938113432822,-154
599640938105740515,-133
599640938098048208,-127
599640938090355901,-122
599640938082663594,-115
599640938074971287,-106
599640938067278980,-99
599640938059586673,-99
599640938051894366,-99
599640938044202059,-115
599640938036509752,-140
599640938028817445,-147
599640938021125138,-140
599640938013432831,-138
599640938005740524,-140
599640937998048217,-136
599640937990355910,-133
599640937982663603,-143
599640937974971296,-158
599640937967278989,-154
599640937959586682,-136
599640937951894375,-129
599640937944202068,-131
599640937936509761,-124
599640937928817454,-113
599640937921125147,-111
599640937913432840,-113
599640937905740533,-118
599640937898048226,-122
599640937890355919,-122
599640937882663612,-113
599640937874971305,-106
599640937867278998,-108
599640937859586691,-106
599640937851894384,-102
599640937844202077,-93
599640937836509770,-88
599640937828817463,-88
599640937821125156,-88
599640937813432849,-81
599640937805740542,-81
599640937798048235,-95
599640937790355928,-120
599640937782663621,-124
599640937774971314,-104
599640937767279007,-97
599640937759586700,-102
599640937751894393,-95
599640937744202086,-84
599640937736509779,-77
599640937728817472,-70
599640937721125165,-68
599640937713432858,-70
599640937705740551,-63
599640937698048244,-52
599640937690355937,-47
599640937682663630,-45
599640937674971323,-45
599640937667279016,-45
599640937659586709,-38
599640937651894402,-36
599640937644202095,-49
599640937636509788,-70
599640937628817481,-63
599640937621125174,-49
599640938736471960,-49
599640938728779653,-47
599640938721087346,-43
599640938713395039,-40
599640938705702732,-40
599640938698010425,-49
599640938690318118,-65
599640938682625811,-74
599640938674933504,-65
599640938667241197,-54
599640938659548890,-52
599640938651856583,-61
599640938644164276,-68
599640938636471969,-63
599640938628779662,-54
599640938621087355,-52
599640938613395048,-54
599640938605702741,-47
599640938598010434,-38
599640938590318127,-36
599640938582625820,-43
599640938574933513,-61
599640938567241206,-70
599640938559548899,-40
599640938551856592,106
599640938544164285,472
599640938536471978,1135
599640938528779671,2020
599640938521087364,2397
599640938513395057,1171
599640938505702750,-533
599640938498010443,-506
599640938490318136,131
599640938482625829,-168
599640938474933522,-374
599640938467241215,-147
599640938459548908,-156
599640938451856601,-240
599640938444164294,-156
599640938436471987,-120
599640938428779680,-154
599640938421087373,-136
599640938413395066,-99
599640938405702759,-88
599640938398010452,-77
599640938390318145,-70
599640938382625838,-74
599640938374933531,-54
599640938367241224,-20
599640938359548917,-2
599640938351856610,13
599640938344164303,38
599640938336471996,68
599640938328779689,97
599640938321087382,127
599640938313395075,163
599640938305702768,199
599640938298010461,236
599640938290318154,265
599640938282625847,286
599640938274933540,297
599640938267241233,297
599640938259548926,274
599640938251856619,211
599640938244164312,106
599640938236472005,-6
599640938228779698,-88
599640938221087391,-136
599640938213395084,-174
599640938205702777,-208
599640938198010470,-236
599640938190318163,-236
599640938182625856,-227
599640939297972642,-224
599640939290280335,-215
599640939282588028,-211
599640939274895721,-215
599640939267203414,-213
599640939259511107,-202
599640939251818800,-208
599640939244126493,-220
599640939236434186,-202
599640939228741879,-177
599640939221049572,-172
599640939213357265,-165
599640939205664958,-152
599640939197972651,-138
599640939190280344,-136
599640939182588037,-140
599640939174895730,-161
599640939167203423,-170
599640939159511116,-161
599640939151818809,-161
599640939144126502,-168
599640939136434195,-172
599640939128741888,-179
599640939121049581,-174
599640939113357274,-163
599640939105664967,-161
599640939097972660,-161
599640939090280353,-156
599640939082588046,-149
599640939074895739,-143
599640939067203432,-136
599640939059511125,-136
599640939051818818,-138
599640939044126511,-131
599640939036434204,-122
599640939028741897,-120
599640939021049590,-118
599640939013357283,-106
599640939005664976,-102
599640938997972669,-104
599640938990280362,-108
599640938982588055,-108
599640938974895748,-102
599640938967203441,-90
599640938959511134,-88
599640938951818827,-97
599640938944126520,-111
599640938936434213,-104
599640938928741906,-86
599640938921049599,-81
599640938913357292,-84
599640938905664985,-79
599640938897972678,-72
599640938890280371,-65
599640938882588064,-61
599640938874895757,-59
599640938867203450,-54
599640938859511143,-49
599640938851818836,-45
599640938844126529,-43
599640938836434222,-43
599640938828741915,-40
599640938821049608,-36
599640938813357301,-40
599640938805664994,-59
599640938797972687,-77
599640938790280380,-77
599640938782588073,-63
599640938774895766,-65
599640938767203459,-84
599640938759511152,-84
599640938751818845,-70
599640938744126538,-63
599640939859473324,-59
599640939851781017,-54
599640939844088710,-54
599640939836396403,-52
599640939828704096,-43
599640939821011789,-38
599640939813319482,-54
599640939805627175,-79
599640939797934868,-77
599640939790242561,-61
599640939782550254,-61
599640939774857947,-63
599640939767165640,-63
599640939759473333,-59
599640939751781026,-61
599640939744088719,-68
599640939736396412,-79
599640939728704105,-84
599640939721011798,-65
599640939713319491,-36
599640939705627184,-20
599640939697934877,-27
599640939690242570,-47
599640939682550263,-49
599640939674857956,-36
599640939667165649,-34
599640939659473342,-38
599640939651781035,-36
599640939644088728,-29
599640939636396421,-20
599640939628704114,-13
599640939621011807,-13
599640939613319500,-18
599640939605627193,-2
599640939597934886,143
599640939590242579,513
599640939582550272,1155
599640939574857965,2011
599640939567165658,2379
599640939559473351,1160
599640939551781044,-538
599640939544088737,-508
599640939536396430,129
599640939528704123,-170
599640939521011816,-383
599640939513319509,-165
599640939505627202,-174
599640939497934895,-256
599640939490242588,-174
599640939482550281,-138
599640939474857974,-168
599640939467165667,-143
599640939459473360,-106
599640939451781053,-99
599640939444088746,-95
599640939436396439,-79
599640939428704132,-63
599640939421011825,-49
599640939413319518,-29
599640939405627211,-11
599640939397934904,-15
599640939390242597,-27
599640939382550290,-13
599640939374857983,18
599640939367165676,47
599640939359473369,81
599640939351781062,120
599640939344088755,163
599640939336396448,197
599640939328704141,217
599640939321011834,227
599640939313319527,231
599640939305627220,215
599640940420974006,158
599640940413281699,59
599640940405589392,-52
599640940397897085,-133
599640940390204778,-188
599640940382512471,-229
599640940374820164,-247
599640940367127857,-254
599640940359435550,-258
599640940351743243,-247
599640940344050936,-231
599640940336358629,-231
599640940328666322,-240
599640940320974015,-236
599640940313281708,-222
599640940305589401,-208
599640940297897094,-215
599640940290204787,-233
599640940282512480,-215
599640940274820173,-186
599640940267127866,-179
599640940259435559,-172
599640940251743252,-156
599640940244050945,-145
599640940236358638,-133
599640940228666331,-127
599640940220974024,-127
599640940213281717,-124
599640940205589410,-113
599640940197897103,-104
599640940190204796,-120
599640940182512489,-149
599640940174820182,-158
599640940167127875,-140
599640940159435568,-131
599640940151743261,-133
599640940144050954,-129
599640940136358647,-124
599640940128666340,-118
599640940120974033,-106
599640940113281726,-99
599640940105589419,-97
599640940097897112,-90
599640940090204805,-81
599640940082512498,-81
599640940074820191,-86
599640940067127884,-86
599640940059435577,-77
599640940051743270,-68
599640940044050963,-63
599640940036358656,-65
599640940028666349,-65
599640940020974042,-59
599640940013281735,-65
599640940005589428,-84
599640939997897121,-97
599640939990204814,-106
599640939982512507,-97
599640939974820200,-81
599640939967127893,-77
599640939959435586,-79
599640939951743279,-72
599640939944050972,-65
599640939936358665,-61
599640939928666358,-54
599640939920974051,-52
599640939913281744,-47
599640939905589437,-43
599640939897897130,-40
599640939890204823,-38
599640939882512516,-34
599640939874820209,-29
599640939867127902,-24
599640940982474688,-22
599640940974782381,-24
599640940967090074,-24
599640940959397767,-20
599640940951705460,-27
599640940944013153,-31
599640940936320846,-43
599640940928628539,-88
599640940920936232,-115
599640940913243925,-88
599640940905551618,-70
599640940897859311,-88
599640940890167004,-106
599640940882474697,-102
599640940874782390,-86
599640940867090083,-79
599640940859397776,-77
599640940851705469,-68
599640940844013162,-61
599640940836320855,-56
599640940828628548,-52
599640940820936241,-45
599640940813243934,-40
599640940805551627,-31
599640940797859320,-29
599640940790167013,-31
599640940782474706,-40
599640940774782399,-56
599640940767090092,-59
599640940759397785,-36
599640940751705478,-27
599640940744013171,-43
599640940736320864,-38
599640940728628557,-24
599640940720936250,-43
599640940713243943,-52
599640940705551636,-40
599640940697859329,-43
599640940690167022,-49
599640940682474715,-40
599640940674782408,-34
599640940667090101,-36
599640940659397794,-40
599640940651705487,-45
599640940644013180,-45
599640940636320873,-59
599640940628628566,-40
599640940620936259,147
599640940613243952,588
599640940605551645,1325
599640940597859338,2184
599640940590167031,2234
599640940582474724,678
599640940574782417,-760
599640940567090110,-379
599640940559397803,84
599640940551705496,-331
599640940544013189,-388
599640940536320882,-161
599640940528628575,-231
599640940520936268,-286
599640940513243961,-195
599640940505551654,-177
599640940497859347,-186
599640940490167040,-147
599640940482474733,-122
599640940474782426,-120
599640940467090119,-102
599640940459397812,-81
599640940451705505,-72
599640940444013198,-56
599640940436320891,-31
599640940428628584,-11
599640941543975370,4
599640941536283063,24
599640941528590756,38
599640941520898449,54
599640941513206142,97
599640941505513835,143
599640941497821528,165
599640941490129221,179
599640941482436914,204
599640941474744607,238
599640941467052300,258
599640941459359993,252
599640941451667686,220
599640941443975379,152
599640941436283072,52
599640941428590765,-49
599640941420898458,-131
599640941413206151,-190
599640941405513844,-227
599640941397821537,-236
599640941390129230,-238
599640941382436923,-240
599640941374744616,-233
599640941367052309,-220
599640941359360002,-208
599640941351667695,-195
599640941343975388,-183
599640941336283081,-177
599640941328590774,-168
599640941320898467,-154
599640941313206160,-145
599640941305513853,-156
599640941297821546,-161
599640941290129239,-143
599640941282436932,-122
599640941274744625,-118
599640941267052318,-115
599640941259360011,-115
599640941251667704,-120
599640941243975397,-115
599640941236283090,-106
599640941228590783,-106
599640941220898476,-111
599640941213206169,-104
599640941205513862,-97
599640941197821555,-99
599640941190129248,-104
599640941182436941,-102
599640941174744634,-95
599640941167052327,-90
599640941159360020,-99
599640941151667713,-127
599640941143975406,-133
599640941136283099,-113
599640941128590792,-104
599640941120898485,-106
599640941113206178,-104
599640941105513871,-93
599640941097821564,-84
599640941090129257,-90
599640941082436950,-99
599640941074744643,-95
599640941067052336,-81
599640941059360029,-77
599640941051667722,-70
599640941043975415,-65
599640941036283108,-68
599640941028590801,-63
599640941020898494,-52
599640941013206187,-56
599640941005513880,-77
599640940997821573,-90
599640940990129266,-79
599640942105476052,-63
599640942097783745,-61
599640942090091438,-61
599640942082399131,-56
599640942074706824,-47
599640942067014517,-43
599640942059322210,-52
599640942051629903,-74
599640942043937596,-88
599640942036245289,-72
599640942028552982,-54
599640942020860675,-56
599640942013168368,-56
599640942005476061,-45
599640941997783754,-38
599640941990091447,-40
599640941982399140,-40
599640941974706833,-38
599640941967014526,-45
599640941959322219,-45
599640941951629912,-38
599640941943937605,-43
599640941936245298,-65
599640941928552991,-68
599640941920860684,-56
599640941913168377,-54
599640941905476070,-59
599640941897783763,-59
599640941890091456,-49
599640941882399149,-40
599640941874706842,-29
599640941867014535,-34
599640941859322228,-49
599640941851629921,-40
599640941843937614,-34
599640941836245307,-52
599640941828553000,-61
599640941820860693,-52
599640941813168386,-43
599640941805476079,-40
599640941797783772,-38
599640941790091465,-43
599640941782399158,-49
599640941774706851,-47
599640941767014544,-43
599640941759322237,-54
599640941751629930,-95
599640941743937623,-99
599640941736245316,52
599640941728553009,431
599640941720860702,1087
599640941713168395,1963
599640941705476088,2361
599640941697783781,1169
599640941690091474,-569
599640941682399167,-592
599640941674706860,70
599640941667014553,-206
599640941659322246,-433
599640941651629939,-204
599640941643937632,-199
599640941636245325,-292
599640941628553018,-213
599640941620860711,-165
599640941613168404,-192
599640941605476097,-188
599640941597783790,-177
599640941590091483,-163
599640941582399176,-131
599640941574706869,-108
599640941567014562,-95
599640941559322255,-77
599640941551629948,-49
599640942666976734,-22
599640942659284427,2
599640942651592120,29
599640942643899813,52
599640942636207506,81
599640942628515199,122
599640942620822892,161
599640942613130585,181
599640942605438278,199
599640942597745971,236
599640942590053664,263
599640942582361357,272
599640942574669050,277
599640942566976743,254
599640942559284436,181
599640942551592129,70
599640942543899822,-56
599640942536207515,-170
599640942528515208,-238
599640942520822901,-263
599640942513130594,-274
599640942505438287,-283
599640942497745980,-290
599640942490053673,-292
599640942482361366,-283
599640942474669059,-263
599640942466976752,-247
599640942459284445,-240
599640942451592138,-227
599640942443899831,-206
599640942436207524,-192
599640942428515217,-183
599640942420822910,-170
599640942413130603,-158
599640942405438296,-147
599640942397745989,-133
599640942390053682,-124
599640942382361375,-120
599640942374669068,-113
599640942366976761,-102
599640942359284454,-97
599640942351592147,-102
599640942343899840,-102
599640942336207533,-95
599640942328515226,-88
599640942320822919,-93
599640942313130612,-115
599640942305438305,-133
599640942297745998,-122
599640942290053691,-111
599640942282361384,-113
599640942274669077,-115
599640942266976770,-111
599640942259284463,-99
599640942251592156,-88
599640942243899849,-84
599640942236207542,-84
599640942228515235,-81
599640942220822928,-77
599640942213130621,-70
599640942205438314,-63
599640942197746007,-65
599640942190053700,-65
599640942182361393,-59
599640942174669086,-54
599640942166976779,-65
599640942159284472,-84
599640942151592165,-81
599640942143899858,-63
599640942136207551,-63
599640942128515244,-70
599640942120822937,-65
599640942113130630,-54
599640943228477416,-54
599640943220785109,-59
599640943213092802,-61
599640943205400495,-63
599640943197708188,-54
599640943190015881,-43
599640943182323574,-45
599640943174631267,-63
599640943166938960,-84
599640943159246653,-77
599640943151554346,-63
599640943143862039,-68
599640943136169732,-88
599640943128477425,-97
599640943120785118,-84
599640943113092811,-79
599640943105400504,-99
599640943097708197,-104
599640943090015890,-86
599640943082323583,-77
599640943074631276,-72
599640943066938969,-68
599640943059246662,-70
599640943051554355,-72
599640943043862048,-59
599640943036169741,-47
599640943028477434,-38
599640943020785127,-18
599640943013092820,6
599640943005400513,2
599640942997708206,-13
599640942990015899,-4
599640942982323592,-11
599640942974631285,-36
599640942966938978,-31
599640942959246671,-22
599640942951554364,-40
599640942943862057,-65
599640942936169750,-68
599640942928477443,-61
599640942920785136,-56
599640942913092829,-56
599640942905400522,-54
599640942897708215,-45
599640942890015908,-43
599640942882323601,-40
599640942874631294,70
599640942866938987,415
599640942859246680,1044
599640942851554373,1923
599640942843862066,2458
599640942836169759,1466
599640942828477452,-365
599640942820785145,-644
599640942813092838,65
599640942805400531,-113
599640942797708224,-431
599640942790015917,-229
599640942782323610,-177
599640942774631303,-283
599640942766938996,-236
599640942759246689,-199
599640942751554382,-231
599640942743862075,-204
599640942736169768,-170
599640942728477461,-174
599640942720785154,-161
599640942713092847,-124
599640942705400540,-104
599640942697708233,-90
599640942690015926,-65
599640942682323619,-40
599640942674631312,-20
599640943789978098,11
599640943782285791,43
599640943774593484,70
599640943766901177,104
599640943759208870,147
599640943751516563,195
599640943743824256,238
599640943736131949,270
599640943728439642,286
599640943720747335,283
599640943713055028,283
599640943705362721,261
599640943697670414,177
599640943689978107,45
599640943682285800,-72
599640943674593493,-152
599640943666901186,-220
599640943659208879,-270
599640943651516572,-288
599640943643824265,-288
599640943636131958,-286
599640943628439651,-286
599640943620747344,-297
599640943613055037,-306
599640943605362730,-290
599640943597670423,-270
599640943589978116,-258
599640943582285809,-247
599640943574593502,-231
599640943566901195,-215
599640943559208888,-202
599640943551516581,-202
599640943543824274,-215
599640943536131967,-206
599640943528439660,-179
599640943520747353,-165
599640943513055046,-170
599640943505362739,-183
599640943497670432,-179
599640943489978125,-156
599640943482285818,-145
599640943474593511,-145
599640943466901204,-140
599640943459208897,-133
599640943451516590,-131
599640943443824283,-124
599640943436131976,-118
599640943428439669,-118
599640943420747362,-115
599640943413055055,-108
599640943405362748,-104
599640943397670441,-104
599640943389978134,-99
599640943382285827,-93
599640943374593520,-88
599640943366901213,-93
599640943359208906,-104
599640943351516599,-106
599640943343824292,-93
599640943336131985,-81
599640943328439678,-86
599640943320747371,-102
599640943313055064,-111
599640943305362757,-95
599640943297670450,-81
599640943289978143,-81
599640943282285836,-77
599640943274593529,-68
599640943266901222,-65
599640943259208915,-63
599640943251516608,-56
599640943243824301,-54
599640943236131994,-49
599640944351478780,-47
599640944343786473,-59
599640944336094166,-70
599640944328401859,-65
599640944320709552,-59
599640944313017245,-56
599640944305324938,-52
599640944297632631,-74
599640944289940324,-120
599640944282248017,-127
599640944274555710,-95
599640944266863403,-90
599640944259171096,-106
599640944251478789,-113
599640944243786482,-108
599640944236094175,-102
599640944228401868,-93
599640944220709561,-88
599640944213017254,-88
599640944205324947,-84
599640944197632640,-72
599640944189940333,-65
599640944182248026,-63
599640944174555719,-61
599640944166863412,-59
599640944159171105,-59
599640944151478798,-59
599640944143786491,-65
599640944136094184,-61
599640944128401877,-24
599640944120709570,-13
599640944113017263,-38
599640944105324956,-40
599640944097632649,-31
599640944089940342,-40
599640944082248035,-43
599640944074555728,-36
599640944066863421,-38
599640944059171114,-34
599640944051478807,-20
599640944043786500,-18
599640944036094193,-22
599640944028401886,-18
599640944020709579,-11
599640944013017272,-6
599640944005324965,-2
599640943997632658,-6
599640943989940351,11
599640943982248044,183
599640943974555737,610
599640943966863430,1348
599640943959171123,2225
599640943951478816,2347
599640943943786509,844
599640943936094202,-710
599640943928401895,-410
599640943920709588,124
599640943913017281,-288
599640943905324974,-395
599640943897632667,-136
599640943889940360,-188
599640943882248053,-283
599640943874555746,-192
599640943866863439,-154
599640943859171132,-183
599640943851478825,-154
599640943843786518,-133
599640943836094211,-152
599640943828401904,-136
599640943820709597,-102
599640943813017290,-93
599640943805324983,-79
599640943797632676,-54
599640944912979462,-31
599640944905287155,-11
599640944897594848,2
599640944889902541,4
599640944882210234,31
599640944874517927,79
599640944866825620,102
599640944859133313,129
599640944851441006,165
599640944843748699,188
599640944836056392,215
599640944828364085,231
599640944820671778,199
599640944812979471,158
599640944805287164,111
599640944797594857,45
599640944789902550,-24
599640944782210243,-122
599640944774517936,-213
599640944766825629,-236
599640944759133322,-233
599640944751441015,-249
599640944743748708,-256
599640944736056401,-238
599640944728364094,-220
599640944720671787,-215
599640944712979480,-211
599640944705287173,-211
599640944697594866,-208
599640944689902559,-190
599640944682210252,-174
599640944674517945,-170
599640944666825638,-156
599640944659133331,-133
599640944651441024,-122
599640944643748717,-118
599640944636056410,-97
599640944628364103,-81
599640944620671796,-90
599640944612979489,-81
599640944605287182,-61
599640944597594875,-63
599640944589902568,-72
599640944582210261,-63
599640944574517954,-49
599640944566825647,-47
599640944559133340,-63
599640944551441033,-93
599640944543748726,-106
599640944536056419,-88
599640944528364112,-74
599640944520671805,-81
599640944512979498,-81
599640944505287191,-72
599640944497594884,-68
599640944489902577,-63
599640944482210270,-59
599640944474517963,-54
599640944466825656,-52
599640944459133349,-59
599640944451441042,-74
599640944443748735,-74
599640944436056428,-68
599640944428364121,-61
599640944420671814,-49
599640944412979507,-40
599640944405287200,-45
599640944397594893,-49
599640944389902586,-47
599640944382210279,-49
599640944374517972,-61
599640944366825665,-72
599640944359133358,-81
599640945474480144,-74
599640945466787837,-68
599640945459095530,-59
599640945451403223,-54
599640945443710916,-61
599640945436018609,-59
599640945428326302,-45
599640945420633995,-47
599640945412941688,-74
599640945405249381,-77
599640945397557074,-61
599640945389864767,-56
599640945382172460,-54
599640945374480153,-49
599640945366787846,-49
599640945359095539,-45
599640945351403232,-38
599640945343710925,-40
599640945336018618,-34
599640945328326311,-20
599640945320634004,4
599640945312941697,24
599640945305249390,0
599640945297557083,-38
599640945289864776,-34
599640945282172469,-20
599640945274480162,-34
599640945266787855,-38
599640945259095548,-31
599640945251403241,-40
599640945243710934,-43
599640945236018627,-36
599640945228326320,-36
599640945220634013,-29
599640945212941706,-15
599640945205249399,-13
599640945197557092,-9
599640945189864785,-9
599640945182172478,13
599640945174480171,190
599640945166787864,599
599640945159095557,1241
599640945151403250,2023
599640945143710943,2252
599640945136018636,980
599640945128326329,-590
599640945120634022,-451
599640945112941715,136
599640945105249408,-190
599640945097557101,-347
599640945089864794,-113
599640945082172487,-154
599640945074480180,-256
599640945066787873,-181
599640945059095566,-133
599640945051403259,-152
599640945043710952,-131
599640945036018645,-99
599640945028326338,-93
599640945020634031,-70
599640945012941724,-47
599640945005249417,-49
599640944997557110,-40
599640944989864803,0
599640944982172496,20
599640944974480189,22
599640944966787882,31
599640944959095575,47
599640944951403268,84
599640944943710961,127
599640944936018654,158
599640944928326347,199
599640944920634040,249
599640946035980826,292
599640946028288519,317
599640946020596212,324
599640946012903905,311
599640946005211598,249
599640945997519291,147
599640945989826984,34
599640945982134677,-86
599640945974442370,-215
599640945966750063,-286
599640945959057756,-288
599640945951365449,-304
599640945943673142,-329
599640945935980835,-322
599640945928288528,-299
599640945920596221,-288
599640945912903914,-286
599640945905211607,-288
599640945897519300,-297
599640945889826993,-292
599640945882134686,-279
599640945874442379,-270
599640945866750072,-261
599640945859057765,-245
599640945851365458,-222
599640945843673151,-206
599640945835980844,-197
599640945828288537,-188
599640945820596230,-181
599640945812903923,-168
599640945805211616,-149
599640945797519309,-145
599640945789827002,-145
599640945782134695,-143
599640945774442388,-140
599640945766750081,-138
599640945759057774,-131
599640945751365467,-127
599640945743673160,-131
599640945735980853,-133
599640945728288546,-127
599640945720596239,-127
599640945712903932,-147
599640945705211625,-165
599640945697519318,-168
599640945689827011,-163
599640945682134704,-156
599640945674442397,-147
599640945666750090,-138
599640945659057783,-129
599640945651365476,-120
599640945643673169,-120
599640945635980862,-129
599640945628288555,-122
599640945620596248,-104
599640945612903941,-95
599640945605211634,-95
599640945597519327,-93
599640945589827020,-88
599640945582134713,-77
599640945574442406,-72
599640945566750099,-88
599640945559057792,-111
599640945551365485,-108
599640945543673178,-93
599640945535980871,-88
599640945528288564,-88
599640945520596257,-81
599640945512903950,-74
599640945505211643,-72
599640945497519336,-72
599640945489827029,-72
599640945482134722,-68
599640946597456076,-59
599640946589763769,-40
599640946582071462,-20
599640946574379155,-4
599640946566686848,-6
599640946558994541,-13
599640946551302234,-9
599640946543609927,-15
599640946535917620,-59
599640946528225313,-81
599640946520533006,-65
599640946512840699,-65
599640946505148392,-81
599640946497456085,-86
599640946489763778,-84
599640946482071471,-74
599640946474379164,-68
599640946466686857,-68
599640946458994550,-74
599640946451302243,-72
599640946443609936,-47
599640946435917629,90
599640946428225322,447
599640946420533015,1073
599640946412840708,1895
599640946405148401,2252
599640946397456094,1105
599640946389763787,-531
599640946382071480,-526
599640946374379173,113
599640946366686866,-152
599640946358994559,-363
599640946351302252,-145
599640946343609945,-149
599640946335917638,-240
599640946328225331,-165
599640946320533024,-143
599640946312840717,-195
599640946305148410,-183
599640946297456103,-140
599640946289763796,-127
599640946282071489,-108
599640946274379182,-81
599640946266686875,-72
599640946258994568,-59
599640946251302261,-29
599640946243609954,-11
599640946235917647,6
599640946228225340,38
599640946220533033,72
599640946212840726,95
599640946205148419,122
599640946197456112,163
599640946189763805,211
599640946182071498,261
599640946174379191,299
599640946166686884,320
599640946158994577,326
599640946151302270,311
599640946143609963,265
599640946135917656,174
599640946128225349,43
599640946120533042,-97
599640946112840735,-195
599640946105148428,-245
599640946097456121,-283
599640946089763814,-306
599640946082071507,-311
599640946074379200,-308
599640946066686893,-304
599640946058994586,-286
599640946051302279,-274
599640946043609972,-270
599640947158951672,-261
599640947151259365,-249
599640947143567058,-252
599640947135874751,-247
599640947128182444,-231
599640947120490137,-215
599640947112797830,-202
599640947105105523,-202
599640947097413216,-236
599640947089720909,-263
599640947082028602,-240
599640947074336295,-208
599640947066643988,-204
599640947058951681,-204
599640947051259374,-197
599640947043567067,-183
599640947035874760,-170
599640947028182453,-165
599640947020490146,-161
599640947012797839,-154
599640947005105532,-147
599640946997413225,-140
599640946989720918,-133
599640946982028611,-133
599640946974336304,-129
599640946966643997,-122
599640946958951690,-118
599640946951259383,-111
599640946943567076,-108
599640946935874769,-115
599640946928182462,-120
599640946920490155,-108
599640946912797848,-102
599640946905105541,-102
599640946897413234,-102
599640946889720927,-95
599640946882028620,-88
599640946874336313,-99
599640946866644006,-118
599640946858951699,-111
599640946851259392,-90
599640946843567085,-86
599640946835874778,-86
599640946828182471,-81
599640946820490164,-77
599640946812797857,-70
599640946805105550,-61
599640946797413243,-59
599640946789720936,-56
599640946782028629,-49
599640946774336322,-45
599640946766644015,-43
599640946758951708,-40
599640946751259401,-40
599640946743567094,-36
599640946735874787,-29
599640946728182480,-38
599640946720490173,-63
599640946712797866,-72
599640946705105559,-59
599640946697413252,-47
599640946689720945,-43
599640946682028638,-27
599640946674336331,0
599640946666644024,11
599640946658951717,-6
599640946651259410,-18
599640946643567103,-22
599640946635874796,-34
599640946628182489,-38
599640946620490182,-29
599640946612797875,-24
599640946605105568,-27
599640947720452354,-27
599640947712760047,-22
599640947705067740,-18
599640947697375433,-18
599640947689683126,-15
599640947681990819,-11
599640947674298512,-11
599640947666606205,-2
599640947658913898,120
599640947651221591,463
599640947643529284,1103
599640947635836977,1963
599640947628144670,2322
599640947620452363,1112
599640947612760056,-574
599640947605067749,-540
599640947597375442,108
599640947589683135,-183
599640947581990828,-395
599640947574298521,-168
599640947566606214,-174
599640947558913907,-277
599640947551221600,-208
599640947543529293,-165
599640947535836986,-188
599640947528144679,-172
599640947520452372,-143
599640947512760065,-147
599640947505067758,-154
599640947497375451,-133
599640947489683144,-102
599640947481990837,-81
599640947474298530,-61
599640947466606223,-38
599640947458913916,-11
599640947451221609,22
599640947443529302,54
599640947435836995,86
599640947428144688,120
599640947420452381,163
599640947412760074,206
599640947405067767,252
599640947397375460,288
599640947389683153,306
599640947381990846,320
599640947374298539,322
599640947366606232,286
599640947358913925,195
599640947351221618,74
599640947343529311,-38
599640947335837004,-122
599640947328144697,-190
599640947320452390,-249
599640947312760083,-283
599640947305067776,-281
599640947297375469,-272
599640947289683162,-267
599640947281990855,-258
599640947274298548,-245
599640947266606241,-227
599640947258913934,-215
599640947251221627,-208
599640947243529320,-202
599640947235837013,-190
599640947228144706,-177
599640947220452399,-163
599640947212760092,-158
599640947205067785,-158
599640947197375478,-152
599640947189683171,-145
599640947181990864,-143
599640947174298557,-136
599640947166606250,-133
599640948281953036,-136
599640948274260729,-127
599640948266568422,-115
599640948258876115,-129
599640948251183808,-149
599640948243491501,-145
599640948235799194,-136
599640948228106887,-140
599640948220414580,-152
599640948212722273,-165
599640948205029966,-163
599640948197337659,-152
599640948189645352,-149
599640948181953045,-147
599640948174260738,-149
599640948166568431,-156
599640948158876124,-154
599640948151183817,-149
599640948143491510,-149
599640948135799203,-143
599640948128106896,-129
599640948120414589,-120
599640948112722282,-120
599640948105029975,-138
599640948097337668,-154
599640948089645361,-138
599640948081953054,-120
599640948074260747,-118
599640948066568440,-113
599640948058876133,-104
599640948051183826,-102
599640948043491519,-95
599640948035799212,-84
599640948028106905,-84
599640948020414598,-79
599640948012722291,-68
599640948005029984,-63
599640947997337677,-63
599640947989645370,-61
599640947981953063,-54
599640947974260756,-45
599640947966568449,-36
599640947958876142,-40
599640947951183835,-45
599640947943491528,-43
599640947935799221,-38
599640947928106914,-34
599640947920414607,-27
599640947912722300,-20
599640947905029993,2
599640947897337686,15
599640947889645379,0
599640947881953072,-22
599640947874260765,-38
599640947866568458,-45
599640947858876151,-45
599640947851183844,-40
599640947843491537,-38
599640947835799230,-36
599640947828106923,-29
599640947820414616,-24
599640947812722309,-24
599640947805030002,-22
599640947797337695,-18
599640947789645388,-11
599640947781953081,-11
599640947774260774,11
599640947766568467,168
599640947758876160,551
599640947751183853,1189
599640947743491546,2007
599640947735799239,2293
599640947728106932,1026
599640948843448630,-588
599640948835756323,-449
599640948828064016,165
599640948820371709,-177
599640948812679402,-372
599640948804987095,-145
599640948797294788,-165
599640948789602481,-274
599640948781910174,-213
599640948774217867,-188
599640948766525560,-211
599640948758833253,-177
599640948751140946,-140
